Data from T1_Reflection__40__13-52-13-014.txt Node

Date: Thu Jun 03 13:52:13 CEST 2021
User: mabdelazizm
Spectrometer: FLMS18565
Trigger mode: 0
Integration Time (sec): 2.000000E0
Scans to average: 1
Electric dark correction enabled: true
Nonlinearity correction enabled: false
Boxcar width: 12
XAxis mode: Wavelengths
Number of Pixels in Spectrum: 2048
>>>>>Begin Spectral Data<<<<<
179.071	34.28
179.452	64.72
179.833	48.86
180.214	77.46
180.595	76.64
180.977	94.62
181.358	97
181.739	88.58
182.12	73.36
182.501	43.72
182.882	2.58
183.262	-4.02
183.643	-8.94
184.024	-6.53
184.405	7.17
184.786	-4.56
185.166	-13.27
185.547	-10.27
185.927	-12.59
186.308	-11.76
186.689	-7.81
187.069	-2.13
187.449	2.16
187.83	-0.78
188.21	1.77
188.59	-1.63
188.971	-4.08
189.351	-3.8
189.731	-9.09
190.111	-6.77
190.491	-9.5
190.871	-5.68
191.251	-2.09
191.631	-0.18
192.011	4.14
192.391	8.64
192.771	10.99
193.151	12.12
193.531	10.87
193.91	8.63
194.29	9.94
194.67	8.14
195.049	5.9
195.429	6.27
195.808	5.85
196.188	6.63
196.567	4.77
196.946	3.88
197.326	4.35
197.705	4.2
198.084	5.31
198.464	3.91
198.843	5.3
199.222	5.82
199.601	6.62
199.98	6.46
200.359	7.1
200.738	6.2
201.117	6.01
201.496	2.89
201.875	1.55
202.254	0.02
202.632	-1.12
203.011	-0.54
203.39	2.26
203.768	3.14
204.147	3.32
204.525	5.41
204.904	5.31
205.282	5.99
205.661	3.88
206.039	6.01
206.418	6.49
206.796	7.7
207.174	6.83
207.552	6.75
207.931	6.5
208.309	5.44
208.687	5.12
209.065	4.88
209.443	5.61
209.821	3.7
210.199	5.29
210.577	6.16
210.954	8.23
211.332	8.14
211.71	7.22
212.088	8.81
212.465	8.91
212.843	6.3
213.221	4.47
213.598	4.77
213.976	4.02
214.353	4.42
214.731	4.82
215.108	5.51
215.485	3.77
215.863	3
216.24	3.07
216.617	4
216.994	3.19
217.371	3.08
217.749	2.54
218.126	2.92
218.503	3.3
218.88	2.93
219.256	4.08
219.633	2.75
220.01	1.7
220.387	2.47
220.764	2.38
221.14	3.12
221.517	2.9
221.894	2.53
222.27	2.55
222.647	2.99
223.023	2.73
223.4	2.6
223.776	2.79
224.153	3.09
224.529	3.01
224.905	3.73
225.282	4.23
225.658	3.75
226.034	3.46
226.41	4.24
226.786	4.5
227.162	4.62
227.538	4.24
227.914	4.19
228.29	4.24
228.666	3.94
229.042	3.84
229.418	3.89
229.793	3.5
230.169	3.51
230.545	3.46
230.92	3.42
231.296	3.47
231.672	3.51
232.047	3.39
232.422	3.6
232.798	3.51
233.173	3.39
233.549	3.12
233.924	3.19
234.299	3.05
234.674	2.9
235.05	2.79
235.425	2.79
235.8	2.58
236.175	2.53
236.55	2.59
236.925	2.51
237.3	2.36
237.675	2.28
238.049	2.27
238.424	2.33
238.799	2.39
239.174	2.45
239.548	2.41
239.923	2.38
240.297	2.27
240.672	2.28
241.046	2.33
241.421	2.44
241.795	2.36
242.17	2.51
242.544	2.45
242.918	2.55
243.293	2.53
243.667	2.48
244.041	2.47
244.415	2.51
244.789	2.5
245.163	2.45
245.537	2.43
245.911	2.29
246.285	2.3
246.659	2.3
247.033	2.26
247.406	2.24
247.78	2.24
248.154	2.23
248.528	2.16
248.901	2.2
249.275	2.15
249.648	2.14
250.022	2.17
250.395	2.08
250.769	2.02
251.142	2.01
251.515	1.87
251.888	1.9
252.262	1.85
252.635	1.83
253.008	1.83
253.381	1.86
253.754	1.9
254.127	1.87
254.5	1.86
254.873	1.87
255.246	1.95
255.619	2
255.992	2.03
256.364	2.06
256.737	2
257.11	1.95
257.483	1.94
257.855	1.97
258.228	1.95
258.6	1.95
258.973	1.95
259.345	1.93
259.718	1.96
260.09	1.97
260.462	2.01
260.834	2.04
261.207	1.99
261.579	2
261.951	1.97
262.323	1.94
262.695	1.9
263.067	1.89
263.439	1.9
263.811	1.92
264.183	1.88
264.555	1.87
264.927	1.86
265.298	1.85
265.67	1.82
266.042	1.92
266.413	1.89
266.785	1.9
267.156	1.89
267.528	1.9
267.899	1.91
268.271	1.91
268.642	1.9
269.013	1.86
269.385	1.82
269.756	1.73
270.127	1.72
270.498	1.74
270.87	1.72
271.241	1.75
271.612	1.8
271.983	1.78
272.354	1.73
272.724	1.7
273.095	1.69
273.466	1.7
273.837	1.65
274.208	1.65
274.578	1.66
274.949	1.7
275.32	1.65
275.69	1.67
276.061	1.64
276.431	1.6
276.802	1.59
277.172	1.59
277.542	1.59
277.913	1.54
278.283	1.53
278.653	1.52
279.023	1.61
279.394	1.63
279.764	1.62
280.134	1.61
280.504	1.59
280.874	1.58
281.244	1.59
281.614	1.56
281.983	1.59
282.353	1.56
282.723	1.54
283.093	1.58
283.462	1.53
283.832	1.53
284.202	1.54
284.571	1.56
284.941	1.58
285.31	1.53
285.68	1.54
286.049	1.54
286.418	1.49
286.788	1.56
287.157	1.55
287.526	1.59
287.895	1.57
288.264	1.52
288.633	1.45
289.002	1.4
289.371	1.38
289.74	1.35
290.109	1.33
290.478	1.3
290.847	1.3
291.216	1.27
291.585	1.31
291.953	1.3
292.322	1.3
292.691	1.3
293.059	1.21
293.428	1.14
293.796	1.11
294.165	1.04
294.533	1.02
294.901	1.02
295.27	1.01
295.638	1.01
296.006	0.89
296.374	0.9
296.743	0.91
297.111	0.87
297.479	0.84
297.847	0.88
298.215	0.86
298.583	0.87
298.95	0.88
299.318	0.92
299.686	0.92
300.054	0.98
300.422	1
300.789	0.96
301.157	0.97
301.525	0.94
301.892	0.91
302.26	0.97
302.627	1.02
302.994	1.02
303.362	1.08
303.729	1.12
304.097	1.12
304.464	1.09
304.831	1.11
305.198	1.08
305.565	1.08
305.932	1.04
306.299	1.13
306.666	1.13
307.033	1.12
307.4	1.18
307.767	1.15
308.134	1.13
308.501	1.08
308.867	1.08
309.234	1.02
309.601	1
309.967	1.03
310.334	1.04
310.701	1
311.067	0.98
311.433	0.97
311.8	0.94
312.166	0.92
312.533	0.92
312.899	0.88
313.265	0.86
313.631	0.84
313.997	0.81
314.363	0.87
314.729	0.9
315.096	0.86
315.461	0.84
315.827	0.82
316.193	0.82
316.559	0.76
316.925	0.73
317.291	0.74
317.656	0.73
318.022	0.77
318.388	0.83
318.753	0.81
319.119	0.77
319.484	0.76
319.85	0.79
320.215	0.81
320.581	0.75
320.946	0.74
321.311	0.72
321.676	0.73
322.042	0.8
322.407	0.83
322.772	0.81
323.137	0.87
323.502	0.85
323.867	0.8
324.232	0.8
324.597	0.81
324.962	0.79
325.327	0.8
325.691	0.85
326.056	0.88
326.421	0.87
326.785	0.84
327.15	0.83
327.514	0.74
327.879	0.8
328.243	0.75
328.608	0.77
328.972	0.82
329.337	0.89
329.701	0.93
330.065	0.98
330.429	0.95
330.794	0.87
331.158	0.82
331.522	0.75
331.886	0.75
332.25	0.66
332.614	0.69
332.978	0.68
333.342	0.67
333.705	0.64
334.069	0.64
334.433	0.65
334.797	0.62
335.16	0.62
335.524	0.64
335.887	0.67
336.251	0.61
336.614	0.65
336.978	0.59
337.341	0.62
337.705	0.61
338.068	0.61
338.431	0.56
338.794	0.58
339.158	0.57
339.521	0.58
339.884	0.6
340.247	0.63
340.61	0.65
340.973	0.67
341.336	0.69
341.699	0.66
342.062	0.69
342.424	0.64
342.787	0.68
343.15	0.69
343.512	0.69
343.875	0.72
344.238	0.73
344.6	0.71
344.963	0.71
345.325	0.75
345.688	0.73
346.05	0.74
346.412	0.77
346.775	0.71
347.137	0.66
347.499	0.68
347.861	0.65
348.223	0.61
348.585	0.67
348.947	0.69
349.309	0.63
349.671	0.72
350.033	0.72
350.395	0.68
350.757	0.73
351.118	0.74
351.48	0.86
351.842	0.83
352.203	0.84
352.565	0.85
352.927	0.86
353.288	0.84
353.65	0.86
354.011	0.83
354.372	0.83
354.734	0.84
355.095	0.85
355.456	0.86
355.817	0.88
356.179	0.9
356.54	0.86
356.901	0.83
357.262	0.87
357.623	0.86
357.984	0.9
358.345	0.97
358.705	0.87
359.066	0.85
359.427	0.88
359.788	0.84
360.148	0.85
360.509	0.76
360.87	0.72
361.23	0.68
361.591	0.61
361.951	0.59
362.312	0.64
362.672	0.62
363.032	0.68
363.393	0.64
363.753	0.64
364.113	0.58
364.473	0.58
364.833	0.62
365.193	0.59
365.553	0.58
365.913	0.57
366.273	0.53
366.633	0.57
366.993	0.51
367.353	0.44
367.713	0.46
368.072	0.49
368.432	0.53
368.792	0.52
369.151	0.45
369.511	0.44
369.87	0.54
370.23	0.54
370.589	0.55
370.949	0.61
371.308	0.54
371.667	0.58
372.027	0.57
372.386	0.64
372.745	0.65
373.104	0.72
373.463	0.71
373.822	0.67
374.181	0.68
374.54	0.74
374.899	0.8
375.258	0.78
375.617	0.69
375.975	0.74
376.334	0.76
376.693	0.81
377.052	0.86
377.41	0.84
377.769	0.94
378.127	0.95
378.486	1.02
378.844	0.99
379.202	1.04
379.561	1.07
379.919	1.03
380.277	1.09
380.636	1.06
380.994	1.05
381.352	1.02
381.71	1.06
382.068	1.15
382.426	1.12
382.784	1.16
383.142	1.24
383.5	1.26
383.857	1.36
384.215	1.43
384.573	1.48
384.931	1.48
385.288	1.6
385.646	1.61
386.003	1.62
386.361	1.74
386.718	1.81
387.076	1.95
387.433	2.06
387.791	2.13
388.148	2.27
388.505	2.36
388.862	2.5
389.22	2.68
389.577	2.87
389.934	3.03
390.291	3.18
390.648	3.32
391.005	3.52
391.362	3.71
391.718	3.89
392.075	4.1
392.432	4.34
392.789	4.56
393.145	4.88
393.502	5.21
393.859	5.49
394.215	5.7
394.572	6.02
394.928	6.29
395.285	6.55
395.641	6.85
395.997	7.23
396.354	7.49
396.71	7.89
397.066	8.25
397.422	8.63
397.778	9.06
398.134	9.45
398.491	9.88
398.846	10.3
399.202	10.77
399.558	11.2
399.914	11.63
400.27	12.13
400.626	12.66
400.981	13.16
401.337	13.68
401.693	14.16
402.048	14.7
402.404	15.24
402.759	15.87
403.115	16.47
403.47	17.06
403.826	17.69
404.181	18.28
404.536	18.85
404.892	19.52
405.247	20.26
405.602	20.88
405.957	21.55
406.312	22.19
406.667	22.78
407.022	23.38
407.377	23.99
407.732	24.59
408.087	25.21
408.442	25.95
408.796	26.6
409.151	27.22
409.506	27.9
409.86	28.6
410.215	29.29
410.57	29.94
410.924	30.44
411.279	31.03
411.633	31.63
411.987	32.29
412.342	32.83
412.696	33.41
413.05	34.03
413.404	34.61
413.758	35.14
414.113	35.65
414.467	36.2
414.821	36.6
415.175	37.2
415.529	37.77
415.882	38.4
416.236	38.88
416.59	39.61
416.944	40.29
417.298	40.81
417.651	41.33
418.005	41.87
418.358	42.32
418.712	42.79
419.065	43.14
419.419	43.59
419.772	44.17
420.126	44.63
420.479	45.02
420.832	45.36
421.185	45.78
421.539	46.18
421.892	46.48
422.245	46.86
422.598	47.06
422.951	47.36
423.304	47.65
423.657	48.05
424.01	48.43
424.363	48.77
424.715	49.07
425.068	49.39
425.421	49.48
425.773	49.66
426.126	49.91
426.479	50.11
426.831	50.34
427.184	50.61
427.536	50.64
427.889	50.9
428.241	51.13
428.593	51.35
428.945	51.58
429.298	51.75
429.65	52
430.002	52.32
430.354	52.56
430.706	52.83
431.058	52.92
431.41	53.32
431.762	53.67
432.114	53.87
432.466	54.12
432.817	54.26
433.169	54.44
433.521	54.58
433.872	54.76
434.224	54.93
434.576	55.07
434.927	55.19
435.279	55.41
435.63	55.5
435.981	55.57
436.333	55.82
436.684	55.81
437.035	55.94
437.387	55.99
437.738	56
438.089	56.08
438.44	56.17
438.791	56.27
439.142	56.26
439.493	56.39
439.844	56.6
440.195	56.56
440.545	56.44
440.896	56.61
441.247	56.71
441.598	56.75
441.948	56.83
442.299	56.9
442.649	56.88
443	57
443.35	57.03
443.701	57.11
444.051	57.07
444.401	57.17
444.752	57.25
445.102	57.11
445.452	57.08
445.802	57.22
446.152	57.3
446.502	57.43
446.852	57.45
447.202	57.34
447.552	57.28
447.902	57.4
448.252	57.32
448.602	56.63
448.952	56.6
449.301	56.68
449.651	56.71
450.001	56.71
450.35	56.66
450.7	56.56
451.049	56.47
451.399	56.66
451.748	56.68
452.097	56.62
452.447	56.45
452.796	56.52
453.145	56.45
453.494	56.34
453.843	56.52
454.193	56.67
454.542	56.6
454.891	56.49
455.239	56.34
455.588	56.36
455.937	56.41
456.286	56.33
456.635	56.28
456.984	56.29
457.332	57.17
457.681	57.16
458.03	57.13
458.378	57.04
458.727	56.98
459.075	57.05
459.423	57.22
459.772	57.33
460.12	57.21
460.468	57.14
460.817	57.2
461.165	57.17
461.513	57.01
461.861	57.08
462.209	57.02
462.557	57
462.905	56.79
463.253	56.66
463.601	56.65
463.949	56.62
464.297	56.5
464.644	56.52
464.992	56.52
465.34	56.47
465.687	56.57
466.035	56.3
466.383	56.25
466.73	55.94
467.078	55.78
467.425	55.64
467.772	55.51
468.12	55.32
468.467	55.22
468.814	55.22
469.161	54.86
469.508	54.76
469.856	54.72
470.203	54.66
470.55	54.48
470.897	54.33
471.243	54.19
471.59	54.18
471.937	53.97
472.284	53.89
472.631	53.7
472.977	53.6
473.324	53.48
473.671	53.34
474.017	53.19
474.364	52.94
474.71	52.84
475.057	52.64
475.403	52.61
475.749	52.53
476.096	52.35
476.442	52.09
476.788	51.94
477.134	51.86
477.48	51.62
477.826	51.55
478.172	51.52
478.518	51.32
478.864	51.13
479.21	51.05
479.556	51.06
479.902	50.99
480.248	50.99
480.593	50.92
480.939	50.73
481.285	50.67
481.63	50.51
481.976	50.39
482.321	50.32
482.667	50.25
483.012	50.13
483.357	50.02
483.703	49.99
484.048	49.9
484.393	49.8
484.738	49.82
485.084	49.78
485.429	49.69
485.774	49.55
486.119	49.48
486.464	49.42
486.808	49.18
487.153	49.06
487.498	48.96
487.843	48.81
488.188	48.67
488.532	48.49
488.877	48.19
489.222	48.12
489.566	47.98
489.911	47.81
490.255	47.77
490.6	47.65
490.944	47.44
491.288	47.2
491.633	47.08
491.977	46.95
492.321	46.8
492.665	46.69
493.009	46.62
493.353	46.43
493.697	46.34
494.041	46.23
494.385	46.11
494.729	45.98
495.073	45.87
495.417	45.85
495.76	45.79
496.104	45.64
496.448	45.63
496.791	45.57
497.135	45.41
497.479	45.23
497.822	45.05
498.165	44.93
498.509	44.85
498.852	44.69
499.196	44.52
499.539	44.42
499.882	44.39
500.225	44.22
500.568	44.08
500.911	43.98
501.254	43.87
501.597	43.67
501.94	43.55
502.283	43.35
502.626	43.23
502.969	42.99
503.312	42.93
503.654	42.88
503.997	42.66
504.34	42.53
504.682	42.38
505.025	42.08
505.367	41.76
505.71	41.67
506.052	41.7
506.395	41.5
506.737	41.32
507.079	41.1
507.421	41.05
507.764	40.91
508.106	40.69
508.448	40.47
508.79	40.37
509.132	40.24
509.474	40.06
509.816	39.86
510.158	39.65
510.499	39.44
510.841	39.46
511.183	39.29
511.525	39.24
511.866	39.06
512.208	38.85
512.549	38.65
512.891	38.55
513.232	38.55
513.574	38.53
513.915	38.63
514.256	38.37
514.598	38.13
514.939	38.17
515.28	38.08
515.621	38.05
515.962	37.88
516.303	37.78
516.644	37.72
516.985	37.78
517.326	37.67
517.667	37.61
518.008	37.5
518.349	37.42
518.69	37.36
519.03	37.24
519.371	37.06
519.712	36.9
520.052	36.71
520.393	36.48
520.733	36.38
521.074	36.27
521.414	36.18
521.754	36.07
522.095	35.97
522.435	35.7
522.775	35.67
523.115	35.63
523.455	35.34
523.795	35.34
524.135	35.13
524.475	34.89
524.815	34.79
525.155	34.64
525.495	34.33
525.835	34.2
526.175	34.01
526.514	33.94
526.854	33.87
527.194	33.72
527.533	33.74
527.873	33.54
528.212	33.56
528.552	33.57
528.891	33.58
529.23	33.49
529.57	33.51
529.909	33.34
530.248	33.15
530.587	33.09
530.927	33.03
531.266	33.06
531.605	32.98
531.944	32.87
532.283	32.59
532.621	32.64
532.96	32.66
533.299	32.5
533.638	32.55
533.977	32.53
534.315	32.51
534.654	32.41
534.992	32.24
535.331	32.16
535.67	32.07
536.008	31.98
536.346	31.99
536.685	31.85
537.023	31.66
537.361	31.46
537.7	31.46
538.038	31.36
538.376	31.28
538.714	31.21
539.052	31.08
539.39	31.08
539.728	30.92
540.066	30.83
540.404	30.84
540.741	30.92
541.079	30.82
541.417	30.76
541.755	30.78
542.092	30.7
542.43	30.61
542.767	30.6
543.105	30.69
543.442	30.77
543.78	30.64
544.117	30.74
544.454	30.64
544.792	30.54
545.129	30.63
545.466	30.71
545.803	30.82
546.14	30.82
546.477	30.85
546.814	30.94
547.151	30.95
547.488	30.92
547.825	30.84
548.162	30.88
548.499	30.78
548.835	30.79
549.172	30.69
549.509	30.81
549.845	30.85
550.182	30.89
550.518	30.78
550.855	30.81
551.191	30.77
551.528	30.75
551.864	30.67
552.2	30.93
552.537	30.92
552.873	30.92
553.209	30.92
553.545	30.86
553.881	30.8
554.217	30.75
554.553	30.67
554.889	30.62
555.225	30.57
555.561	30.54
555.896	30.49
556.232	30.45
556.568	30.45
556.903	30.66
557.239	30.61
557.575	30.73
557.91	30.71
558.245	30.8
558.581	30.81
558.916	30.91
559.252	31.09
559.587	31.04
559.922	31.04
560.257	31.09
560.592	31.01
560.928	31.05
561.263	31.17
561.598	31.21
561.933	31.34
562.267	31.53
562.602	31.59
562.937	31.74
563.272	31.82
563.607	31.71
563.941	31.82
564.276	31.99
564.611	32.11
564.945	32.1
565.28	32.11
565.614	32.28
565.949	32.23
566.283	32.18
566.617	32.2
566.951	32.27
567.286	32.35
567.62	32.36
567.954	32.47
568.288	32.66
568.622	32.69
568.956	32.64
569.29	32.54
569.624	32.5
569.958	32.67
570.292	32.81
570.626	32.85
570.959	33.01
571.293	33.1
571.627	33.2
571.96	33.39
572.294	33.44
572.627	33.42
572.961	33.5
573.294	33.5
573.627	33.54
573.961	33.59
574.294	33.67
574.627	33.84
574.961	33.85
575.294	33.8
575.627	33.86
575.96	33.95
576.293	34.01
576.626	34.09
576.959	34.21
577.292	34.31
577.624	34.49
577.957	34.69
578.29	34.82
578.623	34.78
578.955	34.85
579.288	34.94
579.62	34.96
579.953	35.04
580.285	35.16
580.618	35.32
580.95	35.48
581.282	35.6
581.615	35.79
581.947	35.84
582.279	35.98
582.611	36.01
582.943	36.09
583.275	36.3
583.607	36.61
583.939	36.71
584.271	36.91
584.603	37.09
584.935	37.1
585.267	37.09
585.598	37.28
585.93	37.42
586.262	37.3
586.593	37.36
586.925	37.53
587.256	37.7
587.588	37.7
587.919	37.78
588.25	37.94
588.582	38.04
588.913	38.11
589.244	38.16
589.575	38.34
589.907	38.47
590.238	38.8
590.569	38.98
590.9	39.36
591.231	39.45
591.562	39.42
591.892	39.48
592.223	39.81
592.554	39.9
592.885	40.13
593.215	40.34
593.546	40.57
593.877	40.66
594.207	40.65
594.538	40.89
594.868	40.95
595.198	41.08
595.529	41.13
595.859	41.44
596.189	41.66
596.52	41.84
596.85	41.87
597.18	42.08
597.51	42.27
597.84	42.34
598.17	42.49
598.5	42.4
598.83	42.48
599.16	42.62
599.489	42.92
599.819	43.17
600.149	43.34
600.479	43.51
600.808	43.65
601.138	43.78
601.467	43.9
601.797	44.14
602.126	44.35
602.456	44.74
602.785	44.98
603.114	45.22
603.443	45.47
603.773	45.68
604.102	45.73
604.431	45.94
604.76	46.05
605.089	46.45
605.418	46.53
605.747	46.67
606.076	46.85
606.405	47.07
606.733	47.57
607.062	47.79
607.391	48.05
607.72	48.23
608.048	48.42
608.377	48.85
608.705	49.11
609.034	49.38
609.362	49.57
609.69	50.04
610.019	50.25
610.347	50.53
610.675	50.68
611.004	50.93
611.332	51.2
611.66	51.5
611.988	51.78
612.316	52.12
612.644	52.31
612.972	52.42
613.3	52.41
613.627	52.75
613.955	52.98
614.283	53.12
614.611	53.34
614.938	53.33
615.266	53.53
615.593	53.67
615.921	53.77
616.248	54.07
616.576	54.37
616.903	54.36
617.23	54.55
617.558	55.09
617.885	55.19
618.212	55.39
618.539	55.65
618.866	56.09
619.193	56.18
619.52	56.29
619.847	56.38
620.174	56.58
620.501	56.71
620.828	56.8
621.155	56.98
621.481	57.17
621.808	57.37
622.135	57.88
622.461	58.11
622.788	58.23
623.114	58.63
623.441	58.65
623.767	58.76
624.093	58.96
624.42	59.34
624.746	59.29
625.072	59.59
625.398	59.99
625.725	59.73
626.051	59.81
626.377	60.19
626.703	60.32
627.029	60.31
627.354	60.76
627.68	61.35
628.006	61.28
628.332	61.53
628.658	61.53
628.983	61.61
629.309	62.01
629.634	62.02
629.96	61.82
630.285	61.74
630.611	61.71
630.936	61.89
631.262	61.82
631.587	61.98
631.912	62.26
632.237	62.27
632.562	62.26
632.887	62.52
633.213	63.06
633.538	63.15
633.863	63.65
634.187	63.36
634.512	63.21
634.837	63.33
635.162	63.58
635.487	63.42
635.811	63.55
636.136	63.95
636.461	64.01
636.785	64.19
637.11	65.1
637.434	65.37
637.758	66.08
638.083	66.77
638.407	66.86
638.731	67.6
639.056	67.68
639.38	67.42
639.704	67.81
640.028	68.49
640.352	68.75
640.676	68.97
641	68.79
641.324	68.73
641.648	68.47
641.972	68.17
642.295	69.14
642.619	69.46
642.943	69.22
643.266	68.64
643.59	69.24
643.913	69.01
644.237	68.96
644.56	68.31
644.884	68.28
645.207	67.86
645.53	67.77
645.854	67.93
646.177	67.7
646.5	67.41
646.823	66.87
647.146	67.21
647.469	67.45
647.792	67.39
648.115	66.83
648.438	67.16
648.761	69.3
649.084	70.67
649.406	70.72
649.729	70.19
650.052	69.75
650.374	69.58
650.697	69.52
651.019	69.63
651.342	69.78
651.664	69.75
651.987	69.63
652.309	69.47
652.631	69.73
652.953	69.91
653.276	69.95
653.598	69.87
653.92	69.77
654.242	69.68
654.564	69.6
654.886	69.77
655.208	69.58
655.53	69.59
655.851	69.56
656.173	69.56
656.495	69.61
656.816	68.65
657.138	67.64
657.46	66.9
657.781	66.77
658.103	67.46
658.424	67.16
658.746	67.42
659.067	67.05
659.388	67.38
659.709	66.81
660.031	66.91
660.352	67.45
660.673	67.41
660.994	66.29
661.315	65.77
661.636	66.17
661.957	66.15
662.278	66.75
662.599	67.75
662.919	67.63
663.24	68.78
663.561	68.48
663.881	68.59
664.202	68.66
664.523	68.67
664.843	69.4
665.164	69.13
665.484	69.17
665.804	69.55
666.125	69.65
666.445	70.7
666.765	70.59
667.085	71.01
667.405	70.8
667.726	71.44
668.046	71.8
668.366	71.52
668.686	71.44
669.005	71.97
669.325	72.61
669.645	72.61
669.965	72.96
670.285	72.7
670.604	72.22
670.924	72.47
671.243	71.83
671.563	72.21
671.882	72.07
672.202	72.56
672.521	72.53
672.841	72.11
673.16	72.06
673.479	71.03
673.798	71.03
674.117	70.98
674.437	70.79
674.756	70.64
675.075	70.53
675.394	70.73
675.713	70.43
676.031	70.19
676.35	70.22
676.669	70.43
676.988	70.69
677.306	70.28
677.625	70.11
677.944	70.25
678.262	70.51
678.581	70.94
678.899	71.23
679.218	71.22
679.536	71.62
679.854	70.8
680.172	70.64
680.491	70.02
680.809	69.34
681.127	69.61
681.445	70.52
681.763	70.97
682.081	70.87
682.399	70.1
682.717	69.38
683.035	69.56
683.352	69.05
683.67	68.87
683.988	68.81
684.306	69.08
684.623	68.45
684.941	68.59
685.258	68.66
685.576	69.03
685.893	68.65
686.211	69.22
686.528	69.64
686.845	69.52
687.162	69.33
687.48	68.78
687.797	69.39
688.114	68.4
688.431	68.93
688.748	70.1
689.065	69.95
689.382	69.07
689.699	69.39
690.015	69.83
690.332	69.58
690.649	70.38
690.966	70.13
691.282	70
691.599	70.12
691.915	69.3
692.232	69.46
692.548	70.23
692.865	69.19
693.181	69.41
693.497	69
693.813	69.67
694.13	68.96
694.446	68.72
694.762	68.72
695.078	68.95
695.394	69.61
695.71	70.46
696.026	69.8
696.342	68.73
696.658	68.22
696.973	68.21
697.289	69.29
697.605	68.3
697.92	68.04
698.236	68.59
698.551	67.67
698.867	66.72
699.182	67.6
699.498	67.39
699.813	69.08
700.128	68.56
700.444	67.97
700.759	67.76
701.074	66.39
701.389	67.03
701.704	66.57
702.019	65.75
702.334	65.52
702.649	64.32
702.964	63.84
703.279	62.34
703.594	61.42
703.908	62.77
704.223	63.32
704.538	63.1
704.852	63.17
705.167	63.4
705.481	64.01
705.796	64.55
706.11	63.68
706.425	65.05
706.739	66.23
707.053	66.69
707.368	67.16
707.682	66.6
707.996	66.48
708.31	66.49
708.624	67.82
708.938	69.15
709.252	69.22
709.566	68.76
709.88	69.56
710.193	69.89
710.507	70.43
710.821	71.12
711.135	71.68
711.448	72.37
711.762	72.88
712.075	73.5
712.389	73.62
712.702	73.16
713.015	73.45
713.329	72.87
713.642	72.46
713.955	73.77
714.269	73.4
714.582	73.14
714.895	71.66
715.208	72.06
715.521	72.55
715.834	73.51
716.147	73.85
716.459	73.38
716.772	72.36
717.085	71.81
717.398	71.41
717.71	70.35
718.023	69.45
718.336	67.49
718.648	67.05
718.961	67.28
719.273	66.69
719.585	66.04
719.898	65.14
720.21	65.02
720.522	64.99
720.834	63.45
721.147	62.67
721.459	62.71
721.771	63.24
722.083	63.27
722.395	63.59
722.707	64.41
723.019	63.78
723.33	63.21
723.642	62.52
723.954	63.04
724.265	62.38
724.577	63.24
724.889	62.35
725.2	63.13
725.512	64.16
725.823	65.01
726.135	66.77
726.446	67.14
726.757	67.39
727.068	66.93
727.38	67.9
727.691	68.39
728.002	68.51
728.313	68.94
728.624	69.57
728.935	69.41
729.246	69.6
729.557	69.79
729.867	69.28
730.178	67.95
730.489	67.67
730.8	68.19
731.11	67.98
731.421	69.05
731.731	69.23
732.042	68.99
732.352	68.07
732.663	69.29
732.973	69.43
733.283	69.36
733.594	68.75
733.904	69.17
734.214	68.95
734.524	68.89
734.834	68.91
735.144	66.69
735.454	66.89
735.764	66.77
736.074	67.07
736.384	66.64
736.694	67.93
737.003	67.7
737.313	65.67
737.623	65.97
737.932	68.41
738.242	69.13
738.551	68.67
738.861	69.34
739.17	68.46
739.479	67.7
739.789	69.61
740.098	69.76
740.407	69.03
740.716	67.99
741.025	68.04
741.334	67.48
741.643	65.48
741.952	66.16
742.261	64.22
742.57	66.07
742.879	67.08
743.188	63.17
743.497	62.73
743.805	60.77
744.114	61.14
744.422	59.47
744.731	58.86
745.04	60.49
745.348	62.82
745.656	60.58
745.965	60.33
746.273	60.3
746.581	59.53
746.889	58.98
747.198	59.08
747.506	59.24
747.814	59.86
748.122	59.64
748.43	60.17
748.738	60.53
749.046	61.39
749.353	63.89
749.661	64.06
749.969	66.89
750.277	66.29
750.584	68.27
750.892	73.77
751.199	75.97
751.507	75.64
751.814	75.82
752.122	75.87
752.429	77.42
752.736	77.4
753.044	74.25
753.351	74.94
753.658	73.77
753.965	73.32
754.272	73.13
754.579	74.27
754.886	74.17
755.193	73
755.5	72.33
755.807	71.39
756.114	72.49
756.42	70.48
756.727	71.37
757.034	70.79
757.34	70.59
757.647	69.06
757.953	67.26
758.26	66.51
758.566	64.01
758.872	63.32
759.179	65.36
759.485	66.16
759.791	65.9
760.097	62.44
760.403	61.48
760.709	64.68
761.015	64.55
761.321	63.51
761.627	62.44
761.933	62.86
762.239	62.26
762.545	61.02
762.851	61.81
763.156	61.31
763.462	64.32
763.767	65.61
764.073	67.87
764.378	66.33
764.684	66.59
764.989	62.9
765.295	63.11
765.6	65.29
765.905	65.36
766.21	66.81
766.515	66.14
766.821	65.53
767.126	61.05
767.431	62.85
767.736	69.67
768.041	69.67
768.345	65.75
768.65	66.16
768.955	71.15
769.26	70.92
769.564	71.48
769.869	71.42
770.174	71.56
770.478	70.42
770.783	72.88
771.087	71.27
771.391	68.25
771.696	66.82
772	68.48
772.304	69.73
772.608	75.66
772.913	80.79
773.217	79.92
773.521	78.26
773.825	77.5
774.129	73.09
774.433	69
774.736	68.59
775.04	70.95
775.344	67.07
775.648	67.95
775.951	68.78
776.255	67.32
776.559	61.54
776.862	62.88
777.166	64.25
777.469	61.77
777.772	61.85
778.076	62.96
778.379	62.15
778.682	60.99
778.985	57.8
779.289	62.65
779.592	59.49
779.895	55.49
780.198	54.3
780.501	52.32
780.804	51.5
781.106	56.81
781.409	53.07
781.712	56.04
782.015	58.44
782.317	61.23
782.62	52.93
782.923	49.57
783.225	52.87
783.527	48.74
783.83	46.16
784.132	55.37
784.435	54
784.737	55.69
785.039	55.04
785.341	56.69
785.643	55.25
785.945	52.88
786.248	52.85
786.55	58.84
786.851	51.68
787.153	53.94
787.455	56.58
787.757	60.32
788.059	56.48
788.36	56.74
788.662	56.61
788.964	59.36
789.265	57.11
789.567	59.72
789.868	55.86
790.17	63.94
790.471	61.65
790.772	56.69
791.074	55.5
791.375	56.62
791.676	43.9
791.977	42.7
792.278	38.36
792.579	43.34
792.88	42.65
793.181	41.66
793.482	45.36
793.783	42.71
794.083	35.56
794.384	36.57
794.685	33.76
794.986	33.99
795.286	25.1
795.587	24.65
795.887	29.25
796.188	21.19
796.488	22.01
796.788	21.97
797.089	15.13
797.389	14.77
797.689	11.32
797.989	12.66
798.289	12.69
798.589	15.86
798.889	12.86
799.189	14.13
799.489	18.93
799.789	8
800.089	6.92
800.389	14.33
800.688	15.34
800.988	13.84
801.288	12.5
801.587	19.53
801.887	19.26
802.186	11.69
802.486	9.78
802.785	16.08
803.085	14.34
803.384	14.45
803.683	19.13
803.982	8.8
804.281	9.7
804.58	10.95
804.879	26.46
805.178	18.91
805.477	29.01
805.776	34.52
806.075	46.82
806.374	50.14
806.673	53.8
806.971	53.85
807.27	51.91
807.569	58.27
807.867	54.08
808.166	54.78
808.464	58.13
808.763	53.57
809.061	63.02
809.359	57.35
809.658	74.42
809.956	104.37
810.254	135.37
810.552	154.65
810.85	118.26
811.148	101.1
811.446	92.79
811.744	75.31
812.042	83.49
812.34	52.6
812.638	83.85
812.935	91.24
813.233	84.12
813.531	35.56
813.828	31.73
814.126	35.79
814.423	45.17
814.721	71.24
815.018	15.34
815.316	21.21
815.613	19.19
815.91	-5.91
816.207	-8.52
816.504	-23.03
816.802	-27.38
817.099	-22.99
817.396	-34.46
817.693	-52.94
817.99	-36.2
818.286	-72.4
818.583	-65.43
818.88	-31.09
819.177	-15.25
819.473	11.02
819.77	9.21
820.067	-12.56
820.363	-14.44
820.66	-36.75
820.956	-34.51
821.252	-34.33
821.549	-17.96
821.845	-12.7
822.141	-12.69
822.437	18.75
822.734	7.7
823.03	10.36
823.326	15.94
823.622	29.16
823.918	34.92
824.213	48.91
824.509	56.81
824.805	51.18
825.101	54.99
825.397	65.49
825.692	65.9
825.988	45.5
826.283	63.36
826.579	54.79
826.874	55.47
827.17	70.16
827.465	84.8
827.76	98.89
828.056	117.22
828.351	132.76
828.646	113.66
828.941	101.79
829.236	92.68
829.531	95.45
829.826	77.13
830.121	95.81
830.416	97.57
830.711	88.34
831.006	83.12
831.3	73.15
831.595	66.07
831.89	61.52
832.184	64.7
832.479	41.78
832.773	36.16
833.068	37.49
833.362	46.24
833.656	41.35
833.951	35.31
834.245	25.66
834.539	17.73
834.833	16.66
835.127	15.03
835.421	11.99
835.715	16.43
836.009	32.04
836.303	37.28
836.597	33.37
836.891	37.37
837.185	29.75
837.478	25.46
837.772	13.01
838.066	16.71
838.359	5.76
838.653	16.66
838.946	18.06
839.24	16.85
839.533	28.95
839.826	46.11
840.119	48.25
840.413	45.78
840.706	39.64
840.999	40.26
841.292	41.48
841.585	43.43
841.878	43.88
842.171	29.29
842.464	24
842.757	22.11
843.049	18.9
843.342	-4.29
843.635	-15.34
843.927	0.18
844.22	-10.9
844.513	-16.66
844.805	-17.2
845.098	-8.86
845.39	-7.36
845.682	1.58
845.975	-22.76
846.267	-13.63
846.559	-5.4
846.851	-13.57
847.143	-7.74
847.435	1.74
847.727	5.19
848.019	12.83
848.311	16.15
848.603	23.29
848.895	21.81
849.186	19.26
849.478	21.66
849.77	31.24
850.061	34.1
850.353	33.67
850.645	39.31
850.936	46.5
851.227	36.96
851.519	38.07
851.81	41.45
852.101	48.3
852.393	50.52
852.684	41.5
852.975	60.86
853.266	59.16
853.557	45.2
853.848	45.17
854.139	39.16
854.43	36.99
854.72	21.16
855.011	19.85
855.302	18.03
855.593	26.14
855.883	8.23
856.174	0.21
856.464	5
856.755	-2.23
857.045	-17.56
857.336	-19.32
857.626	-67.82
857.916	0.77
858.206	-21.28
858.497	-2.31
858.787	-2.27
859.077	9.56
859.367	-16.96
859.657	-3.54
859.947	1.5
860.237	-33.25
860.527	-11.2
860.816	-9.44
861.106	-10.12
861.396	-46.16
861.685	-38.26
861.975	-10.89
862.265	-9.44
862.554	-9.65
862.844	-62.47
863.133	-68.86
863.422	-27.23
863.712	-15.21
864.001	2.96
864.29	4.89
864.579	-0.25
864.868	11.82
865.157	-19.33
865.446	-9.36
865.735	-20.11
866.024	-29.2
866.313	-42.95
866.602	-23.16
866.891	-89.04
867.179	-110.23
867.468	-45.81
