Data from T1_Reflection__157__15-32-36-822.txt Node

Date: Thu Jun 03 15:32:36 CEST 2021
User: mabdelazizm
Spectrometer: FLMS18565
Trigger mode: 0
Integration Time (sec): 2.000000E0
Scans to average: 1
Electric dark correction enabled: true
Nonlinearity correction enabled: false
Boxcar width: 12
XAxis mode: Wavelengths
Number of Pixels in Spectrum: 2048
>>>>>Begin Spectral Data<<<<<
179.071	11.8
179.452	44.03
179.833	39.72
180.214	41.62
180.595	35.5
180.977	51.28
181.358	52.8
181.739	52.02
182.12	43.29
182.501	20.55
182.882	6.96
183.262	7.04
183.643	14.07
184.024	20.59
184.405	32.44
184.786	26.77
185.166	29.05
185.547	15.41
185.927	12.77
186.308	21.46
186.689	26.43
187.069	22.28
187.449	20.7
187.83	15.15
188.21	14.45
188.59	13.82
188.971	11.15
189.351	15.33
189.731	14.89
190.111	15.67
190.491	10.4
190.871	11.79
191.251	11.06
191.631	12.22
192.011	12.08
192.391	15.13
192.771	14.82
193.151	14.37
193.531	14.28
193.91	11.98
194.29	13.55
194.67	11.74
195.049	13.44
195.429	12.62
195.808	9.06
196.188	6.84
196.567	6.07
196.946	7.5
197.326	8.82
197.705	9.53
198.084	10.05
198.464	7.73
198.843	6.74
199.222	6.74
199.601	6.01
199.98	6.49
200.359	6.99
200.738	8.34
201.117	5.73
201.496	5.61
201.875	3.89
202.254	3.33
202.632	2.72
203.011	2.34
203.39	4.65
203.768	4.98
204.147	5.9
204.525	4.97
204.904	5.04
205.282	6.55
205.661	6.55
206.039	7.98
206.418	7.69
206.796	8.97
207.174	8.97
207.552	9.52
207.931	9.25
208.309	8.77
208.687	7.49
209.065	9.06
209.443	9.21
209.821	8.12
210.199	8.39
210.577	9.67
210.954	9.99
211.332	10.67
211.71	9.77
212.088	10.7
212.465	10.07
212.843	7.95
213.221	6.78
213.598	7.18
213.976	7.18
214.353	8.26
214.731	8.36
215.108	8.78
215.485	8.81
215.863	7.55
216.24	6.89
216.617	6.28
216.994	5.82
217.371	5.93
217.749	4.2
218.126	5.13
218.503	4.24
218.88	4.65
219.256	5.24
219.633	4.21
220.01	3.3
220.387	4.19
220.764	3.39
221.14	3.38
221.517	2.04
221.894	2.58
222.27	2.75
222.647	2.15
223.023	1.27
223.4	1.29
223.776	1.01
224.153	1.27
224.529	0.74
224.905	0.79
225.282	1
225.658	1.04
226.034	1.1
226.41	1.32
226.786	1.63
227.162	2.1
227.538	1.76
227.914	1.36
228.29	1.35
228.666	1.04
229.042	0.99
229.418	1.24
229.793	1
230.169	1.12
230.545	1.2
230.92	1.49
231.296	1.18
231.672	1.06
232.047	1.13
232.422	1.17
232.798	0.98
233.173	0.88
233.549	0.64
233.924	0.66
234.299	0.34
234.674	0.26
235.05	0.08
235.425	0.06
235.8	-0.04
236.175	-0.12
236.55	-0.15
236.925	-0.25
237.3	-0.21
237.675	-0.27
238.049	-0.25
238.424	-0.15
238.799	-0.07
239.174	-0.01
239.548	-0.07
239.923	0.03
240.297	-0.07
240.672	0.04
241.046	0.12
241.421	0.18
241.795	0.21
242.17	0.31
242.544	0.35
242.918	0.47
243.293	0.55
243.667	0.61
244.041	0.63
244.415	0.66
244.789	0.63
245.163	0.64
245.537	0.64
245.911	0.59
246.285	0.62
246.659	0.65
247.033	0.68
247.406	0.7
247.78	0.66
248.154	0.64
248.528	0.61
248.901	0.64
249.275	0.58
249.648	0.59
250.022	0.58
250.395	0.5
250.769	0.51
251.142	0.53
251.515	0.47
251.888	0.49
252.262	0.42
252.635	0.36
253.008	0.34
253.381	0.34
253.754	0.3
254.127	0.3
254.5	0.24
254.873	0.27
255.246	0.35
255.619	0.37
255.992	0.35
256.364	0.3
256.737	0.23
257.11	0.21
257.483	0.18
257.855	0.18
258.228	0.16
258.6	0.15
258.973	0.14
259.345	0.13
259.718	0.14
260.09	0.13
260.462	0.14
260.834	0.12
261.207	0.07
261.579	0.04
261.951	0.06
262.323	0.03
262.695	0.02
263.067	0.07
263.439	0.11
263.811	0.1
264.183	0.04
264.555	-0.01
264.927	0
265.298	0.03
265.67	0.02
266.042	0.06
266.413	0.04
266.785	0.01
267.156	0.04
267.528	0.03
267.899	0.02
268.271	0.05
268.642	-0
269.013	-0.01
269.385	-0.07
269.756	-0.13
270.127	-0.1
270.498	-0.12
270.87	-0.13
271.241	-0.16
271.612	-0.11
271.983	-0.08
272.354	-0.08
272.724	-0.11
273.095	-0.05
273.466	-0.02
273.837	-0.03
274.208	-0.04
274.578	-0.05
274.949	-0.02
275.32	-0
275.69	0
276.061	0
276.431	-0.04
276.802	-0.03
277.172	-0.04
277.542	-0.02
277.913	-0.02
278.283	-0.02
278.653	0.02
279.023	0.09
279.394	0.07
279.764	0.08
280.134	0.06
280.504	0.1
280.874	0.09
281.244	0.07
281.614	0.03
281.983	0.08
282.353	0.02
282.723	0
283.093	-0
283.462	-0.01
283.832	0.01
284.202	0.01
284.571	0.01
284.941	-0.01
285.31	-0.01
285.68	-0.03
286.049	-0.04
286.418	-0.07
286.788	0
287.157	-0.02
287.526	0.02
287.895	-0.01
288.264	-0.01
288.633	-0.05
289.002	-0.06
289.371	0.01
289.74	-0.03
290.109	0.02
290.478	0.01
290.847	0.01
291.216	-0.04
291.585	-0.03
291.953	-0.05
292.322	-0.06
292.691	-0.06
293.059	-0.09
293.428	-0.1
293.796	-0.12
294.165	-0.11
294.533	-0.09
294.901	-0.02
295.27	-0.04
295.638	0.02
296.006	-0.09
296.374	-0.06
296.743	-0.1
297.111	-0.09
297.479	-0.14
297.847	-0.13
298.215	-0.18
298.583	-0.23
298.95	-0.19
299.318	-0.25
299.686	-0.24
300.054	-0.18
300.422	-0.16
300.789	-0.17
301.157	-0.17
301.525	-0.18
301.892	-0.18
302.26	-0.17
302.627	-0.15
302.994	-0.15
303.362	-0.11
303.729	-0.14
304.097	-0.19
304.464	-0.19
304.831	-0.18
305.198	-0.22
305.565	-0.23
305.932	-0.23
306.299	-0.27
306.666	-0.3
307.033	-0.23
307.4	-0.16
307.767	-0.18
308.134	-0.23
308.501	-0.2
308.867	-0.23
309.234	-0.33
309.601	-0.35
309.967	-0.31
310.334	-0.25
310.701	-0.26
311.067	-0.31
311.433	-0.3
311.8	-0.32
312.166	-0.35
312.533	-0.37
312.899	-0.34
313.265	-0.31
313.631	-0.28
313.997	-0.33
314.363	-0.31
314.729	-0.3
315.096	-0.28
315.461	-0.23
315.827	-0.18
316.193	-0.23
316.559	-0.26
316.925	-0.24
317.291	-0.24
317.656	-0.27
318.022	-0.24
318.388	-0.19
318.753	-0.23
319.119	-0.3
319.484	-0.28
319.85	-0.3
320.215	-0.28
320.581	-0.34
320.946	-0.33
321.311	-0.32
321.676	-0.28
322.042	-0.3
322.407	-0.31
322.772	-0.38
323.137	-0.33
323.502	-0.31
323.867	-0.35
324.232	-0.37
324.597	-0.37
324.962	-0.38
325.327	-0.43
325.691	-0.39
326.056	-0.41
326.421	-0.37
326.785	-0.38
327.15	-0.38
327.514	-0.41
327.879	-0.34
328.243	-0.26
328.608	-0.33
328.972	-0.26
329.337	-0.23
329.701	-0.14
330.065	-0.1
330.429	-0.11
330.794	-0.19
331.158	-0.18
331.522	-0.25
331.886	-0.21
332.25	-0.27
332.614	-0.24
332.978	-0.23
333.342	-0.27
333.705	-0.25
334.069	-0.27
334.433	-0.18
334.797	-0.25
335.16	-0.27
335.524	-0.28
335.887	-0.27
336.251	-0.33
336.614	-0.26
336.978	-0.33
337.341	-0.34
337.705	-0.34
338.068	-0.28
338.431	-0.32
338.794	-0.41
339.158	-0.49
339.521	-0.45
339.884	-0.46
340.247	-0.42
340.61	-0.36
340.973	-0.32
341.336	-0.3
341.699	-0.32
342.062	-0.3
342.424	-0.33
342.787	-0.36
343.15	-0.33
343.512	-0.39
343.875	-0.33
344.238	-0.25
344.6	-0.3
344.963	-0.29
345.325	-0.23
345.688	-0.28
346.05	-0.29
346.412	-0.3
346.775	-0.3
347.137	-0.41
347.499	-0.36
347.861	-0.31
348.223	-0.26
348.585	-0.29
348.947	-0.27
349.309	-0.32
349.671	-0.34
350.033	-0.34
350.395	-0.4
350.757	-0.38
351.118	-0.35
351.48	-0.27
351.842	-0.36
352.203	-0.36
352.565	-0.31
352.927	-0.31
353.288	-0.34
353.65	-0.28
354.011	-0.28
354.372	-0.23
354.734	-0.25
355.095	-0.19
355.456	-0.18
355.817	-0.18
356.179	-0.13
356.54	-0.13
356.901	-0.2
357.262	-0.23
357.623	-0.16
357.984	-0.17
358.345	-0.11
358.705	-0.14
359.066	-0.2
359.427	-0.13
359.788	-0.13
360.148	-0.2
360.509	-0.23
360.87	-0.14
361.23	-0.15
361.591	-0.15
361.951	-0.15
362.312	-0.15
362.672	-0.19
363.032	-0.16
363.393	-0.21
363.753	-0.18
364.113	-0.28
364.473	-0.29
364.833	-0.28
365.193	-0.3
365.553	-0.28
365.913	-0.31
366.273	-0.32
366.633	-0.4
366.993	-0.39
367.353	-0.46
367.713	-0.45
368.072	-0.41
368.432	-0.48
368.792	-0.51
369.151	-0.53
369.511	-0.54
369.87	-0.53
370.23	-0.55
370.589	-0.56
370.949	-0.58
371.308	-0.61
371.667	-0.57
372.027	-0.64
372.386	-0.68
372.745	-0.71
373.104	-0.6
373.463	-0.59
373.822	-0.61
374.181	-0.65
374.54	-0.7
374.899	-0.57
375.258	-0.62
375.617	-0.62
375.975	-0.59
376.334	-0.52
376.693	-0.44
377.052	-0.44
377.41	-0.35
377.769	-0.31
378.127	-0.3
378.486	-0.28
378.844	-0.32
379.202	-0.29
379.561	-0.26
379.919	-0.29
380.277	-0.29
380.636	-0.28
380.994	-0.27
381.352	-0.24
381.71	-0.22
382.068	-0.2
382.426	-0.22
382.784	-0.21
383.142	-0.12
383.5	-0.15
383.857	-0.11
384.215	-0.01
384.573	-0.01
384.931	-0.05
385.288	-0.16
385.646	-0.19
386.003	-0.17
386.361	-0.27
386.718	-0.25
387.076	-0.19
387.433	-0.18
387.791	-0.16
388.148	-0.15
388.505	-0.21
388.862	-0.22
389.22	-0.19
389.577	-0.18
389.934	-0.17
390.291	-0.15
390.648	-0.1
391.005	-0.03
391.362	-0.03
391.718	-0.08
392.075	-0.09
392.432	-0.06
392.789	-0.13
393.145	-0.16
393.502	-0.09
393.859	-0.02
394.215	0.01
394.572	0
394.928	0.01
395.285	0.06
395.641	0.15
395.997	0.2
396.354	0.22
396.71	0.35
397.066	0.46
397.422	0.57
397.778	0.69
398.134	0.7
398.491	0.77
398.846	0.87
399.202	0.93
399.558	1.01
399.914	1.08
400.27	1.23
400.626	1.41
400.981	1.52
401.337	1.67
401.693	1.87
402.048	2.09
402.404	2.25
402.759	2.37
403.115	2.62
403.47	2.82
403.826	3.04
404.181	3.27
404.536	3.33
404.892	3.51
405.247	3.67
405.602	3.88
405.957	4.05
406.312	4.16
406.667	4.39
407.022	4.7
407.377	4.95
407.732	5.22
408.087	5.42
408.442	5.7
408.796	5.91
409.151	6.22
409.506	6.43
409.86	6.77
410.215	7.04
410.57	7.25
410.924	7.45
411.279	7.67
411.633	7.95
411.987	8.2
412.342	8.45
412.696	8.68
413.05	9.02
413.404	9.38
413.758	9.79
414.113	10.06
414.467	10.33
414.821	10.49
415.175	10.93
415.529	11.18
415.882	11.49
416.236	11.86
416.59	12.28
416.944	12.74
417.298	13.03
417.651	13.29
418.005	13.56
418.358	13.96
418.712	14.23
419.065	14.57
419.419	14.92
419.772	15.3
420.126	15.67
420.479	16.04
420.832	16.42
421.185	16.74
421.539	17.08
421.892	17.37
422.245	17.7
422.598	17.93
422.951	18.33
423.304	18.61
423.657	19.06
424.01	19.36
424.363	19.82
424.715	20.12
425.068	20.38
425.421	20.63
425.773	20.89
426.126	21.34
426.479	21.62
426.831	21.89
427.184	22.13
427.536	22.37
427.889	22.66
428.241	22.97
428.593	23.25
428.945	23.53
429.298	23.84
429.65	24.05
430.002	24.31
430.354	24.62
430.706	24.87
431.058	24.99
431.41	25.28
431.762	25.58
432.114	25.84
432.466	26.01
432.817	26.27
433.169	26.46
433.521	26.75
433.872	26.92
434.224	27.04
434.576	27.23
434.927	27.23
435.279	27.58
435.63	27.68
435.981	27.93
436.333	28.2
436.684	28.23
437.035	28.28
437.387	28.39
437.738	28.58
438.089	28.65
438.44	28.82
438.791	28.85
439.142	29
439.493	29.17
439.844	29.35
440.195	29.42
440.545	29.47
440.896	29.63
441.247	29.76
441.598	29.81
441.948	29.9
442.299	29.89
442.649	29.99
443	30.11
443.35	30.19
443.701	30.38
444.051	30.38
444.401	30.59
444.752	30.67
445.102	30.68
445.452	30.87
445.802	30.97
446.152	31
446.502	31.05
446.852	31.1
447.202	31.11
447.552	31.29
447.902	31.29
448.252	31.21
448.602	31.77
448.952	31.89
449.301	31.95
449.651	31.92
450.001	31.95
450.35	32.08
450.7	32.08
451.049	32.14
451.399	32.32
451.748	32.43
452.097	32.41
452.447	32.32
452.796	32.33
453.145	32.42
453.494	32.32
453.843	32.38
454.193	32.44
454.542	32.6
454.891	32.63
455.239	32.53
455.588	32.62
455.937	32.65
456.286	32.67
456.635	32.77
456.984	32.88
457.332	32.4
457.681	32.27
458.03	32.26
458.378	32.34
458.727	32.25
459.075	32.31
459.423	32.46
459.772	32.49
460.12	32.31
460.468	32.18
460.817	32.19
461.165	32.28
461.513	32.22
461.861	32.21
462.209	32.16
462.557	32.08
462.905	31.95
463.253	31.73
463.601	31.67
463.949	31.6
464.297	31.55
464.644	31.46
464.992	31.43
465.34	31.34
465.687	31.3
466.035	31.1
466.383	31.13
466.73	31
467.078	30.93
467.425	30.87
467.772	30.67
468.12	30.47
468.467	30.43
468.814	30.39
469.161	30.41
469.508	30.33
469.856	30.17
470.203	30.05
470.55	29.82
470.897	29.72
471.243	29.68
471.59	29.64
471.937	29.57
472.284	29.56
472.631	29.53
472.977	29.37
473.324	29.32
473.671	29.13
474.017	28.92
474.364	28.79
474.71	28.72
475.057	28.51
475.403	28.35
475.749	28.3
476.096	28.23
476.442	28.07
476.788	27.99
477.134	27.8
477.48	27.68
477.826	27.51
478.172	27.46
478.518	27.41
478.864	27.36
479.21	27.33
479.556	27.29
479.902	27.26
480.248	27.15
480.593	27.02
480.939	26.89
481.285	26.74
481.63	26.61
481.976	26.47
482.321	26.41
482.667	26.38
483.012	26.3
483.357	26.23
483.703	26.22
484.048	26.21
484.393	26.1
484.738	26.07
485.084	25.99
485.429	25.87
485.774	25.83
486.119	25.83
486.464	25.74
486.808	25.61
487.153	25.49
487.498	25.33
487.843	25.15
488.188	25.06
488.532	24.82
488.877	24.64
489.222	24.65
489.566	24.46
489.911	24.43
490.255	24.4
490.6	24.34
490.944	24.18
491.288	24.03
491.633	23.93
491.977	23.84
492.321	23.75
492.665	23.58
493.009	23.54
493.353	23.36
493.697	23.33
494.041	23.23
494.385	23.17
494.729	23
495.073	22.93
495.417	22.85
495.76	22.76
496.104	22.7
496.448	22.65
496.791	22.54
497.135	22.52
497.479	22.37
497.822	22.2
498.165	22.12
498.509	22.04
498.852	21.9
499.196	21.8
499.539	21.79
499.882	21.76
500.225	21.66
500.568	21.68
500.911	21.53
501.254	21.49
501.597	21.35
501.94	21.39
502.283	21.24
502.626	21.21
502.969	21.12
503.312	21.06
503.654	20.95
503.997	20.88
504.34	20.81
504.682	20.67
505.025	20.5
505.367	20.31
505.71	20.2
506.052	20.21
506.395	20.17
506.737	20.11
507.079	19.95
507.421	19.85
507.764	19.71
508.106	19.51
508.448	19.37
508.79	19.27
509.132	19.03
509.474	18.95
509.816	18.84
510.158	18.64
510.499	18.49
510.841	18.43
511.183	18.27
511.525	18.14
511.866	18.06
512.208	17.97
512.549	17.83
512.891	17.62
513.232	17.55
513.574	17.56
513.915	17.52
514.256	17.4
514.598	17.39
514.939	17.37
515.28	17.34
515.621	17.22
515.962	17.17
516.303	17.13
516.644	17.16
516.985	17.09
517.326	16.95
517.667	16.96
518.008	16.83
518.349	16.81
518.69	16.73
519.03	16.57
519.371	16.53
519.712	16.47
520.052	16.41
520.393	16.25
520.733	16.17
521.074	16.13
521.414	16.24
521.754	16.24
522.095	16.13
522.435	16.15
522.775	16.22
523.115	16.01
523.455	15.84
523.795	15.74
524.135	15.72
524.475	15.5
524.815	15.48
525.155	15.4
525.495	15.27
525.835	15.29
526.175	15.17
526.514	15.14
526.854	15.04
527.194	15.04
527.533	15.1
527.873	14.87
528.212	14.83
528.552	14.77
528.891	14.87
529.23	14.81
529.57	14.67
529.909	14.5
530.248	14.38
530.587	14.31
530.927	14.21
531.266	14.01
531.605	14.03
531.944	13.94
532.283	13.8
532.621	13.69
532.96	13.81
533.299	13.68
533.638	13.59
533.977	13.51
534.315	13.47
534.654	13.4
534.992	13.38
535.331	13.31
535.67	13.22
536.008	13.06
536.346	13.16
536.685	13.09
537.023	12.92
537.361	12.62
537.7	12.55
538.038	12.62
538.376	12.56
538.714	12.52
539.052	12.56
539.39	12.61
539.728	12.55
540.066	12.42
540.404	12.38
540.741	12.35
541.079	12.38
541.417	12.36
541.755	12.28
542.092	12.14
542.43	12.16
542.767	12.07
543.105	11.97
543.442	11.91
543.78	11.85
544.117	11.93
544.454	11.96
544.792	11.89
545.129	11.93
545.466	12.05
545.803	12.19
546.14	12.2
546.477	12.12
546.814	12.09
547.151	12.17
547.488	12.04
547.825	11.8
548.162	11.81
548.499	11.82
548.835	11.81
549.172	11.85
549.509	11.87
549.845	11.82
550.182	11.86
550.518	11.92
550.855	11.89
551.191	11.91
551.528	12.07
551.864	12.03
552.2	12.16
552.537	12.09
552.873	12.08
553.209	12.08
553.545	11.9
553.881	11.79
554.217	11.67
554.553	11.65
554.889	11.59
555.225	11.69
555.561	11.53
555.896	11.57
556.232	11.56
556.568	11.57
556.903	11.69
557.239	11.57
557.575	11.6
557.91	11.65
558.245	11.73
558.581	11.71
558.916	11.73
559.252	11.88
559.587	11.82
559.922	11.68
560.257	11.7
560.592	11.62
560.928	11.67
561.263	11.74
561.598	11.66
561.933	11.73
562.267	12.05
562.602	12.15
562.937	12.22
563.272	12.3
563.607	12.22
563.941	12.37
564.276	12.52
564.611	12.65
564.945	12.7
565.28	12.67
565.614	12.78
565.949	12.74
566.283	12.64
566.617	12.67
566.951	12.75
567.286	12.75
567.62	12.7
567.954	12.78
568.288	12.85
568.622	12.91
568.956	12.91
569.29	12.96
569.624	12.88
569.958	12.99
570.292	13.04
570.626	13
570.959	13.09
571.293	13.16
571.627	13.21
571.96	13.31
572.294	13.3
572.627	13.28
572.961	13.28
573.294	13.23
573.627	13.26
573.961	13.33
574.294	13.4
574.627	13.51
574.961	13.54
575.294	13.59
575.627	13.64
575.96	13.65
576.293	13.69
576.626	13.71
576.959	13.77
577.292	13.84
577.624	13.86
577.957	13.95
578.29	14.03
578.623	14.11
578.955	14.07
579.288	14.08
579.62	14.06
579.953	14.1
580.285	14.07
580.618	14.19
580.95	14.3
581.282	14.45
581.615	14.59
581.947	14.63
582.279	14.67
582.611	14.72
582.943	14.76
583.275	14.79
583.607	14.94
583.939	14.99
584.271	15.05
584.603	15.14
584.935	15.24
585.267	15.31
585.598	15.34
585.93	15.34
586.262	15.37
586.593	15.3
586.925	15.4
587.256	15.45
587.588	15.51
587.919	15.62
588.25	15.71
588.582	15.83
588.913	15.88
589.244	15.94
589.575	15.93
589.907	15.99
590.238	16.13
590.569	16.24
590.9	16.29
591.231	16.37
591.562	16.43
591.892	16.45
592.223	16.77
592.554	17.02
592.885	17.18
593.215	17.32
593.546	17.36
593.877	17.4
594.207	17.48
594.538	17.62
594.868	17.76
595.198	17.86
595.529	18.07
595.859	18.22
596.189	18.3
596.52	18.47
596.85	18.53
597.18	18.55
597.51	18.62
597.84	18.74
598.17	18.85
598.5	18.84
598.83	18.91
599.16	19.14
599.489	19.3
599.819	19.45
600.149	19.5
600.479	19.52
600.808	19.62
601.138	19.71
601.467	19.85
601.797	20
602.126	20.24
602.456	20.47
602.785	20.62
603.114	20.82
603.443	20.94
603.773	21.11
604.102	21.25
604.431	21.4
604.76	21.45
605.089	21.68
605.418	21.79
605.747	21.95
606.076	22.12
606.405	22.25
606.733	22.52
607.062	22.81
607.391	23.02
607.72	23.13
608.048	23.41
608.377	23.82
608.705	24.12
609.034	24.21
609.362	24.38
609.69	24.57
610.019	24.75
610.347	25.03
610.675	25.33
611.004	25.5
611.332	25.71
611.66	25.84
611.988	25.92
612.316	26
612.644	26.24
612.972	26.47
613.3	26.57
613.627	26.98
613.955	27.18
614.283	27.33
614.611	27.62
614.938	27.85
615.266	27.98
615.593	28
615.921	28.4
616.248	28.61
616.576	28.84
616.903	28.81
617.23	29.22
617.558	29.56
617.885	29.82
618.212	30.16
618.539	30.26
618.866	30.42
619.193	30.72
619.52	31.02
619.847	31.68
620.174	31.94
620.501	32.24
620.828	32.4
621.155	32.55
621.481	32.82
621.808	33.05
622.135	33.26
622.461	33.5
622.788	33.68
623.114	33.86
623.441	33.98
623.767	34.53
624.093	34.57
624.42	34.62
624.746	34.86
625.072	35.14
625.398	35.47
625.725	35.57
626.051	35.71
626.377	35.92
626.703	36.16
627.029	36.37
627.354	36.81
627.68	36.95
628.006	37.01
628.332	37.27
628.658	37.77
628.983	37.88
629.309	38.29
629.634	38.47
629.96	38.29
630.285	38.6
630.611	38.55
630.936	38.52
631.262	38.76
631.587	38.81
631.912	38.67
632.237	39.02
632.562	39.47
632.887	39.47
633.213	39.91
633.538	39.9
633.863	40.21
634.187	40.18
634.512	40.25
634.837	40.56
635.162	40.84
635.487	40.61
635.811	40.8
636.136	40.74
636.461	41.1
636.785	40.88
637.11	41.5
637.434	41.63
637.758	42.5
638.083	43.15
638.407	43.03
638.731	43.91
639.056	44.22
639.38	44.17
639.704	44.55
640.028	45.54
640.352	45.41
640.676	45.8
641	45.57
641.324	45.68
641.648	45.52
641.972	45.34
642.295	46.03
642.619	46.51
642.943	46.38
643.266	45.91
643.59	45.96
643.913	46.11
644.237	46.4
644.56	46.18
644.884	46.08
645.207	45.77
645.53	45.74
645.854	45.71
646.177	46.01
646.5	46.24
646.823	45.63
647.146	45.81
647.469	46.18
647.792	46.43
648.115	45.89
648.438	46.63
648.761	48.42
649.084	49.76
649.406	49.86
649.729	49.09
650.052	48.59
650.374	48.26
650.697	48.14
651.019	48.18
651.342	48.3
651.664	48.32
651.987	48.34
652.309	48.11
652.631	48.15
652.953	48.39
653.276	48.38
653.598	48.4
653.92	48.32
654.242	48.26
654.564	48.12
654.886	48.19
655.208	48.22
655.53	48.03
655.851	47.7
656.173	47.72
656.495	47.74
656.816	46.89
657.138	45.69
657.46	44.67
657.781	44.95
658.103	45.69
658.424	46.46
658.746	46.88
659.067	46.94
659.388	46.98
659.709	47.28
660.031	47.21
660.352	47.01
660.673	46.91
660.994	45.93
661.315	45.66
661.636	45.79
661.957	46.4
662.278	46.3
662.599	46.65
662.919	46.63
663.24	47.09
663.561	47.85
663.881	48.45
664.202	48.21
664.523	47.24
664.843	47.44
665.164	47.75
665.484	47.92
665.804	48.21
666.125	49.05
666.445	49.3
666.765	49.64
667.085	50.22
667.405	50.33
667.726	50.52
668.046	50.48
668.366	51.4
668.686	51.9
669.005	52.61
669.325	53.4
669.645	52.71
669.965	51.93
670.285	51.94
670.604	52.66
670.924	53.13
671.243	52.82
671.563	52.51
671.882	53.13
672.202	53.43
672.521	54.15
672.841	53.85
673.16	54.02
673.479	53.41
673.798	53.1
674.117	52.54
674.437	52.25
674.756	52.64
675.075	52.34
675.394	52.39
675.713	51.91
676.031	51.29
676.35	51.24
676.669	50.91
676.988	51.28
677.306	50.75
677.625	51.35
677.944	52.05
678.262	52.34
678.581	51.94
678.899	51.83
679.218	51.66
679.536	52.21
679.854	51.59
680.172	51.46
680.491	50.96
680.809	51.27
681.127	51.25
681.445	51.43
681.763	51.36
682.081	51.37
682.399	50.92
682.717	49.84
683.035	50.26
683.352	50.34
683.67	50.69
683.988	51.14
684.306	51.21
684.623	51.12
684.941	51.06
685.258	51.4
685.576	51.27
685.893	50.39
686.211	49.84
686.528	49.66
686.845	49.5
687.162	49.29
687.48	48.7
687.797	48.27
688.114	47.89
688.431	47.49
688.748	47.63
689.065	47.18
689.382	47.01
689.699	47.99
690.015	48.7
690.332	49.78
690.649	50.12
690.966	50.24
691.282	50.29
691.599	49.51
691.915	49.43
692.232	49.77
692.548	49.63
692.865	48.98
693.181	48.58
693.497	48.95
693.813	49.7
694.13	49.59
694.446	49.78
694.762	50.36
695.078	50.37
695.394	51.05
695.71	51.86
696.026	51.46
696.342	51.93
696.658	52.06
696.973	52.09
697.289	52.54
697.605	51.46
697.92	51.09
698.236	51.42
698.551	51.29
698.867	50.43
699.182	50.81
699.498	51.99
699.813	52.9
700.128	52.73
700.444	52.95
700.759	51.96
701.074	51.34
701.389	51.26
701.704	51.2
702.019	51.04
702.334	51.05
702.649	51.39
702.964	51.84
703.279	50.43
703.594	50.65
703.908	51.33
704.223	51.48
704.538	50.77
704.852	51.55
705.167	51.14
705.481	52.11
705.796	51.49
706.11	50.25
706.425	50.7
706.739	50.85
707.053	50.94
707.368	50.73
707.682	50.5
707.996	50.1
708.31	51.16
708.624	51.95
708.938	52.62
709.252	52.93
709.566	52.12
709.88	53.01
710.193	53.13
710.507	52.25
710.821	52.23
711.135	53.39
711.448	54.05
711.762	54.02
712.075	54.16
712.389	54.14
712.702	53.82
713.015	54.47
713.329	53.82
713.642	54.58
713.955	54.78
714.269	54.94
714.582	54.96
714.895	53.38
715.208	54.5
715.521	54.76
715.834	54.99
716.147	53.53
716.459	54.24
716.772	54.86
717.085	54.89
717.398	54.93
717.71	53.54
718.023	53.11
718.336	52.21
718.648	52.16
718.961	52.39
719.273	51.56
719.585	51.55
719.898	50.88
720.21	51.57
720.522	52.04
720.834	51.53
721.147	51.46
721.459	51.5
721.771	52.56
722.083	52.23
722.395	51.64
722.707	51.08
723.019	50.61
723.33	50.91
723.642	50.24
723.954	49.49
724.265	49.47
724.577	49.06
724.889	48.69
725.2	49.63
725.512	50.92
725.823	51.21
726.135	50.74
726.446	51.01
726.757	49.39
727.068	49.24
727.38	49.86
727.691	51.32
728.002	51.56
728.313	51.13
728.624	50.96
728.935	49.98
729.246	49.4
729.557	50.02
729.867	49.47
730.178	50.5
730.489	52.13
730.8	51.53
731.11	50.89
731.421	50.92
731.731	52.13
732.042	52.15
732.352	51.81
732.663	51.86
732.973	52.62
733.283	52.23
733.594	51.94
733.904	53.56
734.214	53.16
734.524	54.9
734.834	54.92
735.144	53.78
735.454	52.78
735.764	52.08
736.074	52.11
736.384	51.16
736.694	52.29
737.003	52.62
737.313	50.67
737.623	50.26
737.932	50.36
738.242	50.14
738.551	50.24
738.861	50.72
739.17	51.13
739.479	51.09
739.789	49.9
740.098	50.28
740.407	49.24
740.716	47.52
741.025	47.79
741.334	47.94
741.643	46.83
741.952	46.47
742.261	43.67
742.57	42.42
742.879	43.32
743.188	42.49
743.497	41.18
743.805	40.14
744.114	44.48
744.422	45.04
744.731	45.66
745.04	47.26
745.348	48.25
745.656	45.51
745.965	44.03
746.273	42.11
746.581	42.19
746.889	41.81
747.198	41.75
747.506	42.22
747.814	43.29
748.122	43.79
748.43	44.27
748.738	44.6
749.046	44.6
749.353	45.13
749.661	46.37
749.969	47.17
750.277	47.1
750.584	47.61
750.892	48.67
751.199	50.31
751.507	51
751.814	48.74
752.122	48.05
752.429	47.78
752.736	47.24
753.044	47.89
753.351	48.84
753.658	50.13
753.965	51.42
754.272	48.83
754.579	50.64
754.886	49.95
755.193	49.97
755.5	49.08
755.807	49.26
756.114	48.84
756.42	48.37
756.727	50.27
757.034	49.95
757.34	48.61
757.647	49.37
757.953	50.51
758.26	49.45
758.566	48.5
758.872	47.49
759.179	48.26
759.485	49.47
759.791	47.5
760.097	45.17
760.403	42.91
760.709	42.3
761.015	42.37
761.321	40.84
761.627	40.82
761.933	41.98
762.239	42.13
762.545	40.32
762.851	41.9
763.156	39.97
763.462	39.83
763.767	42.15
764.073	40.87
764.378	37.79
764.684	38.65
764.989	39.63
765.295	39.01
765.6	40.48
765.905	42.2
766.21	43.87
766.515	42.24
766.821	41.5
767.126	39.75
767.431	45.02
767.736	50.22
768.041	51.78
768.345	51.61
768.65	53.31
768.955	55.21
769.26	55.06
769.564	55.54
769.869	53.26
770.174	58
770.478	61.4
770.783	66.26
771.087	69.63
771.391	64.22
771.696	69.16
772	74.85
772.304	77.12
772.608	80.2
772.913	83.37
773.217	78.92
773.521	77.69
773.825	77.14
774.129	81.65
774.433	80.34
774.736	78.55
775.04	77.98
775.344	76.73
775.648	77.39
775.951	76.76
776.255	74.69
776.559	72.85
776.862	70.82
777.166	76.32
777.469	78.18
777.772	76.79
778.076	73.6
778.379	71.22
778.682	69.85
778.985	68.18
779.289	68.42
779.592	66.95
779.895	64.16
780.198	63.76
780.501	62.89
780.804	64.13
781.106	67.62
781.409	66.33
781.712	65.93
782.015	66.73
782.317	68.46
782.62	64.77
782.923	63.45
783.225	67.51
783.527	64.97
783.83	58.52
784.132	64.9
784.435	67.42
784.737	62.94
785.039	59.97
785.341	59.04
785.643	57.5
785.945	57.51
786.248	59.68
786.55	69.03
786.851	59.2
787.153	49.96
787.455	49.96
787.757	47.28
788.059	42.07
788.36	43.83
788.662	45.6
788.964	47.23
789.265	50.47
789.567	53.82
789.868	47.86
790.17	52.34
790.471	51.74
790.772	51.77
791.074	54.64
791.375	59.15
791.676	49.25
791.977	50.92
792.278	49.04
792.579	53.98
792.88	54.63
793.181	55.3
793.482	61.35
793.783	57.25
794.083	54.42
794.384	60.4
794.685	61.39
794.986	57.78
795.286	55.79
795.587	55.51
795.887	58.53
796.188	56.78
796.488	59.43
796.788	54.38
797.089	50.71
797.389	54.79
797.689	53.63
797.989	50.69
798.289	45.78
798.589	42.06
798.889	36.52
799.189	42.32
799.489	40.4
799.789	32.08
800.089	32.09
800.389	42.94
800.688	43.38
800.988	39.59
801.288	37.2
801.587	27.58
801.887	26.3
802.186	25
802.486	18.29
802.785	14.85
803.085	26.02
803.384	19.02
803.683	9.74
803.982	9.05
804.281	7.78
804.58	15.63
804.879	19.81
805.178	19.49
805.477	30.13
805.776	50.49
806.075	56.26
806.374	64.79
806.673	65.16
806.971	64.7
807.27	65.45
807.569	68.25
807.867	48.41
808.166	47.24
808.464	49.26
808.763	54.2
809.061	82.14
809.359	94.73
809.658	120.08
809.956	173.61
810.254	213.98
810.552	226.86
810.85	168.12
811.148	175.18
811.446	176.67
811.744	163.62
812.042	195.6
812.34	179.59
812.638	198.98
812.935	259.16
813.233	209.94
813.531	182.14
813.828	188.84
814.126	213.09
814.423	246.86
814.721	304.52
815.018	365.37
815.316	365.11
815.613	333.07
815.91	381.73
816.207	355.71
816.504	275.57
816.802	234
817.099	170.76
817.396	110.1
817.693	95.8
817.99	96.65
818.286	111.62
818.583	91.57
818.88	101.85
819.177	93.63
819.473	99.58
819.77	88
820.067	73.99
820.363	58.71
820.66	46.68
820.956	64.39
821.252	37.49
821.549	29.81
821.845	19.45
822.141	14.86
822.437	27.36
822.734	21.14
823.03	30.99
823.326	35.52
823.622	49.69
823.918	51.14
824.213	45.21
824.509	34.63
824.805	42.72
825.101	45.94
825.397	42.95
825.692	26.98
825.988	23.87
826.283	43.55
826.579	63.21
826.874	45.66
827.17	52.56
827.465	62.03
827.76	79.22
828.056	74.76
828.351	66.61
828.646	77.91
828.941	73.87
829.236	76.75
829.531	86.72
829.826	77.42
830.121	99.68
830.416	97.85
830.711	90.88
831.006	82.75
831.3	78.26
831.595	76.89
831.89	82.56
832.184	88.34
832.479	91.55
832.773	97.75
833.068	97.42
833.362	111.7
833.656	94.62
833.951	83.3
834.245	89.67
834.539	90.61
834.833	88.24
835.127	71.35
835.421	75.45
835.715	72.71
836.009	78.78
836.303	79.11
836.597	72.57
836.891	62.55
837.185	57.58
837.478	40.59
837.772	31.02
838.066	34.61
838.359	28.48
838.653	34.29
838.946	30.7
839.24	28.48
839.533	28.6
839.826	36.9
840.119	26.27
840.413	25.94
840.706	13.99
840.999	6.71
841.292	19.25
841.585	21.33
841.878	27.73
842.171	34.12
842.464	38.15
842.757	58.65
843.049	59.44
843.342	40.76
843.635	28.46
843.927	44.88
844.22	51.12
844.513	46.48
844.805	49.64
845.098	49.3
845.39	48.76
845.682	65.86
845.975	54.99
846.267	84.5
846.559	104.31
846.851	115.32
847.143	85.04
847.435	111.04
847.727	88.05
848.019	74.73
848.311	76.18
848.603	69.53
848.895	73.77
849.186	71.53
849.478	61.37
849.77	66.72
850.061	55.15
850.353	57.87
850.645	63.35
850.936	79.39
851.227	68.33
851.519	67.54
851.81	63.14
852.101	64.12
852.393	71.29
852.684	61.43
852.975	65.32
853.266	61.53
853.557	47.67
853.848	41.99
854.139	41.59
854.43	45.01
854.72	38.87
855.011	39.49
855.302	35.77
855.593	39.02
855.883	24.99
856.174	14.45
856.464	20.1
856.755	26.85
857.045	13.64
857.336	17.13
857.626	3.37
857.916	29.71
858.206	-7.56
858.497	3.72
858.787	9.72
859.077	19.23
859.367	19.11
859.657	15.68
859.947	25.31
860.237	19.18
860.527	17.95
860.816	0.87
861.106	9.35
861.396	-33.67
861.685	-31.54
861.975	-18.85
862.265	-24.86
862.554	-13.73
862.844	-80.08
863.133	-98.18
863.422	-68.4
863.712	-46.24
864.001	-34.68
864.29	-31.77
864.579	-50.38
864.868	-48.82
865.157	-77.72
865.446	-71.14
865.735	-82.57
866.024	-110.28
866.313	-101.76
866.602	-128.42
866.891	-195
867.179	-239.67
867.468	-184.23
