Data from T1_Reflection__94__14-28-58-944.txt Node

Date: Thu Jun 03 14:28:58 CEST 2021
User: mabdelazizm
Spectrometer: FLMS18565
Trigger mode: 0
Integration Time (sec): 2.000000E0
Scans to average: 1
Electric dark correction enabled: true
Nonlinearity correction enabled: false
Boxcar width: 12
XAxis mode: Wavelengths
Number of Pixels in Spectrum: 2048
>>>>>Begin Spectral Data<<<<<
179.071	34.67
179.452	76.48
179.833	68.01
180.214	97.11
180.595	107.86
180.977	104.14
181.358	108.86
181.739	112.3
182.12	85.14
182.501	63.06
182.882	53.45
183.262	32.66
183.643	27.27
184.024	27.37
184.405	24.7
184.786	6.48
185.166	17.65
185.547	2.52
185.927	4.84
186.308	11.32
186.689	21.58
187.069	22.42
187.449	27.4
187.83	24.04
188.21	18.9
188.59	17.32
188.971	11.26
189.351	15.56
189.731	7.4
190.111	7.12
190.491	6.81
190.871	7.78
191.251	8.85
191.631	10.84
192.011	11.6
192.391	14.42
192.771	16.63
193.151	15.23
193.531	13.02
193.91	11.86
194.29	14.14
194.67	11.79
195.049	10.96
195.429	12.56
195.808	9.73
196.188	7.44
196.567	5.3
196.946	5.36
197.326	6.42
197.705	7.24
198.084	8.28
198.464	7.29
198.843	5.61
199.222	7.02
199.601	8.08
199.98	7.9
200.359	8.13
200.738	7.47
201.117	7.35
201.496	8.25
201.875	7.37
202.254	7.16
202.632	7.01
203.011	6.13
203.39	7.22
203.768	6.58
204.147	5.51
204.525	6.42
204.904	5.79
205.282	7.8
205.661	7.66
206.039	9.61
206.418	10.08
206.796	10.6
207.174	10.04
207.552	9.77
207.931	8.86
208.309	8.83
208.687	7.62
209.065	8.15
209.443	7.66
209.821	7.62
210.199	8.72
210.577	9.2
210.954	9.03
211.332	8.71
211.71	7.69
212.088	8.83
212.465	9.53
212.843	7.32
213.221	7.61
213.598	9.14
213.976	8.84
214.353	8.7
214.731	8.79
215.108	8.59
215.485	7.24
215.863	6.43
216.24	5.96
216.617	7.32
216.994	6.75
217.371	7.04
217.749	6.52
218.126	7.01
218.503	6
218.88	6.39
219.256	6.4
219.633	5.63
220.01	4.87
220.387	5.68
220.764	5.11
221.14	5.08
221.517	4.61
221.894	4.72
222.27	4.82
222.647	4.09
223.023	3.63
223.4	3.79
223.776	3.74
224.153	3.19
224.529	3.21
224.905	3.58
225.282	3.47
225.658	3.41
226.034	2.75
226.41	3.11
226.786	3.38
227.162	3.33
227.538	2.87
227.914	2.75
228.29	2.65
228.666	2.31
229.042	2.13
229.418	2.19
229.793	2
230.169	2.17
230.545	2.13
230.92	2.26
231.296	2.05
231.672	1.92
232.047	1.91
232.422	1.99
232.798	1.74
233.173	1.77
233.549	1.67
233.924	1.53
234.299	1.35
234.674	1.33
235.05	1.25
235.425	1.28
235.8	1.21
236.175	1.14
236.55	1.11
236.925	1.07
237.3	0.99
237.675	1.03
238.049	1.07
238.424	1.09
238.799	1.07
239.174	0.98
239.548	0.92
239.923	0.93
240.297	0.75
240.672	0.8
241.046	0.89
241.421	0.95
241.795	0.9
242.17	0.97
242.544	0.94
242.918	1.03
243.293	1.07
243.667	1.13
244.041	1.15
244.415	1.09
244.789	1
245.163	0.95
245.537	0.92
245.911	0.83
246.285	0.84
246.659	0.89
247.033	0.83
247.406	0.84
247.78	0.78
248.154	0.79
248.528	0.81
248.901	0.81
249.275	0.79
249.648	0.85
250.022	0.9
250.395	0.83
250.769	0.86
251.142	0.83
251.515	0.77
251.888	0.71
252.262	0.67
252.635	0.63
253.008	0.52
253.381	0.55
253.754	0.59
254.127	0.66
254.5	0.62
254.873	0.63
255.246	0.71
255.619	0.75
255.992	0.75
256.364	0.75
256.737	0.71
257.11	0.75
257.483	0.79
257.855	0.76
258.228	0.78
258.6	0.78
258.973	0.78
259.345	0.76
259.718	0.76
260.09	0.68
260.462	0.77
260.834	0.76
261.207	0.76
261.579	0.73
261.951	0.74
262.323	0.76
262.695	0.69
263.067	0.73
263.439	0.72
263.811	0.74
264.183	0.69
264.555	0.69
264.927	0.67
265.298	0.63
265.67	0.63
266.042	0.65
266.413	0.65
266.785	0.61
267.156	0.63
267.528	0.61
267.899	0.62
268.271	0.57
268.642	0.54
269.013	0.55
269.385	0.57
269.756	0.49
270.127	0.5
270.498	0.48
270.87	0.44
271.241	0.44
271.612	0.48
271.983	0.5
272.354	0.44
272.724	0.41
273.095	0.41
273.466	0.47
273.837	0.45
274.208	0.45
274.578	0.47
274.949	0.46
275.32	0.5
275.69	0.51
276.061	0.48
276.431	0.5
276.802	0.48
277.172	0.51
277.542	0.51
277.913	0.5
278.283	0.48
278.653	0.5
279.023	0.53
279.394	0.51
279.764	0.54
280.134	0.58
280.504	0.59
280.874	0.58
281.244	0.56
281.614	0.58
281.983	0.64
282.353	0.65
282.723	0.63
283.093	0.65
283.462	0.63
283.832	0.67
284.202	0.69
284.571	0.64
284.941	0.65
285.31	0.59
285.68	0.54
286.049	0.53
286.418	0.45
286.788	0.57
287.157	0.53
287.526	0.57
287.895	0.56
288.264	0.58
288.633	0.6
289.002	0.57
289.371	0.62
289.74	0.6
290.109	0.6
290.478	0.6
290.847	0.57
291.216	0.52
291.585	0.48
291.953	0.4
292.322	0.39
292.691	0.41
293.059	0.36
293.428	0.32
293.796	0.3
294.165	0.26
294.533	0.29
294.901	0.32
295.27	0.37
295.638	0.35
296.006	0.2
296.374	0.25
296.743	0.21
297.111	0.19
297.479	0.11
297.847	0.13
298.215	0.12
298.583	0.09
298.95	0.08
299.318	0.09
299.686	0.12
300.054	0.16
300.422	0.18
300.789	0.2
301.157	0.27
301.525	0.25
301.892	0.21
302.26	0.26
302.627	0.3
302.994	0.3
303.362	0.35
303.729	0.4
304.097	0.39
304.464	0.32
304.831	0.37
305.198	0.38
305.565	0.34
305.932	0.37
306.299	0.34
306.666	0.33
307.033	0.33
307.4	0.4
307.767	0.33
308.134	0.33
308.501	0.3
308.867	0.29
309.234	0.25
309.601	0.22
309.967	0.24
310.334	0.26
310.701	0.18
311.067	0.18
311.433	0.17
311.8	0.13
312.166	0.14
312.533	0.13
312.899	0.08
313.265	0.11
313.631	0.14
313.997	0.09
314.363	0.12
314.729	0.16
315.096	0.1
315.461	0.14
315.827	0.16
316.193	0.16
316.559	0.13
316.925	0.17
317.291	0.12
317.656	0.11
318.022	0.15
318.388	0.2
318.753	0.17
319.119	0.13
319.484	0.16
319.85	0.23
320.215	0.3
320.581	0.25
320.946	0.26
321.311	0.23
321.676	0.28
322.042	0.31
322.407	0.27
322.772	0.28
323.137	0.38
323.502	0.38
323.867	0.31
324.232	0.4
324.597	0.37
324.962	0.36
325.327	0.32
325.691	0.39
326.056	0.38
326.421	0.44
326.785	0.45
327.15	0.41
327.514	0.34
327.879	0.4
328.243	0.43
328.608	0.43
328.972	0.48
329.337	0.42
329.701	0.5
330.065	0.53
330.429	0.56
330.794	0.44
331.158	0.41
331.522	0.39
331.886	0.4
332.25	0.37
332.614	0.38
332.978	0.4
333.342	0.34
333.705	0.36
334.069	0.37
334.433	0.43
334.797	0.32
335.16	0.29
335.524	0.29
335.887	0.29
336.251	0.28
336.614	0.32
336.978	0.25
337.341	0.25
337.705	0.19
338.068	0.24
338.431	0.21
338.794	0.2
339.158	0.13
339.521	0.11
339.884	0.12
340.247	0.12
340.61	0.09
340.973	0.1
341.336	0.01
341.699	-0.03
342.062	-0.03
342.424	-0.04
342.787	-0.05
343.15	-0.03
343.512	-0.06
343.875	-0.01
344.238	0.01
344.6	-0.01
344.963	-0.03
345.325	-0.01
345.688	0.03
346.05	0.01
346.412	-0.05
346.775	-0.04
347.137	-0.18
347.499	-0.14
347.861	-0.2
348.223	-0.19
348.585	-0.2
348.947	-0.14
349.309	-0.16
349.671	-0.1
350.033	-0.1
350.395	-0.04
350.757	-0
351.118	0.01
351.48	0.11
351.842	0.1
352.203	0.1
352.565	0.16
352.927	0.2
353.288	0.19
353.65	0.18
354.011	0.22
354.372	0.19
354.734	0.07
355.095	0.15
355.456	0.19
355.817	0.13
356.179	0.13
356.54	0.14
356.901	0.12
357.262	0.12
357.623	0.2
357.984	0.15
358.345	0.13
358.705	0.1
359.066	0.1
359.427	0.15
359.788	0.13
360.148	0.14
360.509	0.11
360.87	0.07
361.23	-0
361.591	-0.09
361.951	-0.11
362.312	-0.1
362.672	-0.13
363.032	-0.12
363.393	-0.08
363.753	-0.03
364.113	-0.08
364.473	-0.05
364.833	0
365.193	0.03
365.553	-0.01
365.913	0.03
366.273	0.04
366.633	0.03
366.993	0.02
367.353	0.01
367.713	-0.03
368.072	-0.06
368.432	-0.14
368.792	-0.18
369.151	-0.2
369.511	-0.24
369.87	-0.15
370.23	-0.06
370.589	-0.04
370.949	-0.07
371.308	-0.05
371.667	0.03
372.027	0.02
372.386	0.02
372.745	0.04
373.104	0.07
373.463	0.09
373.822	0.1
374.181	0.12
374.54	0.13
374.899	0.18
375.258	0.15
375.617	0.06
375.975	0.1
376.334	0.1
376.693	0.18
377.052	0.19
377.41	0.16
377.769	0.24
378.127	0.24
378.486	0.22
378.844	0.16
379.202	0.07
379.561	0.09
379.919	0.08
380.277	-0.01
380.636	-0.04
380.994	-0.09
381.352	-0.09
381.71	-0.04
382.068	0.02
382.426	-0.06
382.784	-0.09
383.142	-0.13
383.5	-0.14
383.857	-0.15
384.215	-0.08
384.573	-0.03
384.931	-0.09
385.288	-0.07
385.646	-0.11
386.003	-0.16
386.361	-0.06
386.718	-0.11
387.076	-0.14
387.433	-0.12
387.791	-0.11
388.148	-0.02
388.505	-0.02
388.862	-0.01
389.22	0.1
389.577	0.1
389.934	0.13
390.291	0.13
390.648	0.09
391.005	0.13
391.362	0.18
391.718	0.22
392.075	0.25
392.432	0.26
392.789	0.24
393.145	0.21
393.502	0.21
393.859	0.28
394.215	0.28
394.572	0.3
394.928	0.37
395.285	0.31
395.641	0.41
395.997	0.5
396.354	0.5
396.71	0.51
397.066	0.6
397.422	0.62
397.778	0.7
398.134	0.73
398.491	0.85
398.846	0.92
399.202	1.01
399.558	1.07
399.914	1.06
400.27	1.23
400.626	1.3
400.981	1.46
401.337	1.6
401.693	1.75
402.048	1.89
402.404	2
402.759	2.18
403.115	2.39
403.47	2.56
403.826	2.75
404.181	2.89
404.536	2.97
404.892	3.12
405.247	3.31
405.602	3.6
405.957	3.75
406.312	3.91
406.667	4.06
407.022	4.34
407.377	4.6
407.732	4.86
408.087	5.05
408.442	5.35
408.796	5.63
409.151	5.84
409.506	6.19
409.86	6.53
410.215	6.92
410.57	7.24
410.924	7.58
411.279	7.97
411.633	8.23
411.987	8.59
412.342	8.98
412.696	9.35
413.05	9.94
413.404	10.4
413.758	10.92
414.113	11.35
414.467	11.74
414.821	12.11
415.175	12.64
415.529	13.21
415.882	13.63
416.236	14.12
416.59	14.7
416.944	15.3
417.298	15.82
417.651	16.34
418.005	16.81
418.358	17.37
418.712	17.84
419.065	18.28
419.419	18.73
419.772	19.26
420.126	19.71
420.479	20.28
420.832	20.81
421.185	21.39
421.539	21.88
421.892	22.32
422.245	22.91
422.598	23.32
422.951	23.93
423.304	24.4
423.657	24.95
424.01	25.57
424.363	26.07
424.715	26.64
425.068	27.2
425.421	27.6
425.773	28.1
426.126	28.58
426.479	29.04
426.831	29.61
427.184	30.01
427.536	30.34
427.889	30.81
428.241	31.34
428.593	31.78
428.945	32.29
429.298	32.68
429.65	33.03
430.002	33.34
430.354	33.75
430.706	34.12
431.058	34.37
431.41	34.83
431.762	35.22
432.114	35.66
432.466	36.06
432.817	36.36
433.169	36.8
433.521	37.15
433.872	37.39
434.224	37.77
434.576	38.04
434.927	38.26
435.279	38.59
435.63	38.88
435.981	39.21
436.333	39.59
436.684	39.75
437.035	39.94
437.387	40.14
437.738	40.31
438.089	40.53
438.44	40.75
438.791	41.02
439.142	41.26
439.493	41.43
439.844	41.64
440.195	41.73
440.545	41.73
440.896	41.87
441.247	42.04
441.598	42.2
441.948	42.21
442.299	42.31
442.649	42.35
443	42.51
443.35	42.64
443.701	42.75
444.051	42.75
444.401	42.71
444.752	42.76
445.102	42.82
445.452	42.96
445.802	43.11
446.152	43.12
446.502	43.24
446.852	43.36
447.202	43.24
447.552	43.32
447.902	43.33
448.252	43.41
448.602	42.89
448.952	43.02
449.301	43.2
449.651	43.33
450.001	43.38
450.35	43.39
450.7	43.42
451.049	43.42
451.399	43.7
451.748	43.65
452.097	43.5
452.447	43.53
452.796	43.64
453.145	43.71
453.494	43.58
453.843	43.54
454.193	43.55
454.542	43.59
454.891	43.7
455.239	43.64
455.588	43.66
455.937	43.83
456.286	43.82
456.635	43.75
456.984	43.72
457.332	44.31
457.681	44.29
458.03	44.13
458.378	43.99
458.727	43.8
459.075	43.74
459.423	43.9
459.772	43.86
460.12	43.58
460.468	43.38
460.817	43.41
461.165	43.29
461.513	43.19
461.861	43.18
462.209	43.13
462.557	43.13
462.905	42.97
463.253	42.8
463.601	42.69
463.949	42.53
464.297	42.42
464.644	42.34
464.992	42.12
465.34	42.09
465.687	42.09
466.035	41.99
466.383	41.83
466.73	41.62
467.078	41.64
467.425	41.56
467.772	41.45
468.12	41.06
468.467	40.94
468.814	40.92
469.161	40.85
469.508	40.74
469.856	40.64
470.203	40.48
470.55	40.17
470.897	40.03
471.243	39.75
471.59	39.72
471.937	39.46
472.284	39.34
472.631	39.14
472.977	39.03
473.324	38.85
473.671	38.69
474.017	38.34
474.364	38.1
474.71	37.91
475.057	37.71
475.403	37.58
475.749	37.33
476.096	37.04
476.442	36.71
476.788	36.64
477.134	36.48
477.48	36.28
477.826	36.11
478.172	35.96
478.518	35.79
478.864	35.56
479.21	35.44
479.556	35.28
479.902	35.11
480.248	34.85
480.593	34.66
480.939	34.39
481.285	34.29
481.63	34.05
481.976	33.78
482.321	33.59
482.667	33.5
483.012	33.21
483.357	33.1
483.703	32.95
484.048	32.87
484.393	32.6
484.738	32.55
485.084	32.42
485.429	32.22
485.774	32.1
486.119	31.98
486.464	31.85
486.808	31.66
487.153	31.49
487.498	31.36
487.843	31.17
488.188	31
488.532	30.84
488.877	30.62
489.222	30.52
489.566	30.36
489.911	30.15
490.255	29.94
490.6	29.84
490.944	29.74
491.288	29.53
491.633	29.55
491.977	29.32
492.321	29.09
492.665	28.81
493.009	28.65
493.353	28.46
493.697	28.32
494.041	28.15
494.385	28.01
494.729	27.77
495.073	27.54
495.417	27.41
495.76	27.21
496.104	27.03
496.448	26.86
496.791	26.78
497.135	26.58
497.479	26.4
497.822	26.18
498.165	26.03
498.509	25.87
498.852	25.69
499.196	25.48
499.539	25.23
499.882	25.14
500.225	24.91
500.568	24.82
500.911	24.7
501.254	24.54
501.597	24.41
501.94	24.27
502.283	24.07
502.626	23.89
502.969	23.75
503.312	23.61
503.654	23.5
503.997	23.36
504.34	23.21
504.682	23.09
505.025	22.95
505.367	22.66
505.71	22.61
506.052	22.51
506.395	22.41
506.737	22.27
507.079	22.18
507.421	22.06
507.764	21.92
508.106	21.77
508.448	21.63
508.79	21.45
509.132	21.25
509.474	21.12
509.816	21.06
510.158	20.96
510.499	20.89
510.841	20.85
511.183	20.75
511.525	20.54
511.866	20.45
512.208	20.32
512.549	20.21
512.891	20.06
513.232	19.99
513.574	19.88
513.915	19.82
514.256	19.54
514.598	19.44
514.939	19.36
515.28	19.26
515.621	19.09
515.962	19.01
516.303	18.93
516.644	18.83
516.985	18.66
517.326	18.52
517.667	18.47
518.008	18.33
518.349	18.27
518.69	18.15
519.03	17.88
519.371	17.75
519.712	17.59
520.052	17.47
520.393	17.36
520.733	17.3
521.074	17.16
521.414	17.11
521.754	16.9
522.095	16.84
522.435	16.67
522.775	16.74
523.115	16.52
523.455	16.32
523.795	16.26
524.135	16.16
524.475	15.94
524.815	15.94
525.155	15.89
525.495	15.8
525.835	15.73
526.175	15.58
526.514	15.46
526.854	15.3
527.194	15.24
527.533	15.19
527.873	15.03
528.212	15.03
528.552	14.99
528.891	14.9
529.23	14.83
529.57	14.74
529.909	14.62
530.248	14.6
530.587	14.51
530.927	14.47
531.266	14.25
531.605	14.29
531.944	14.16
532.283	13.99
532.621	13.86
532.96	13.87
533.299	13.8
533.638	13.77
533.977	13.77
534.315	13.84
534.654	13.8
534.992	13.89
535.331	13.82
535.67	13.73
536.008	13.7
536.346	13.76
536.685	13.74
537.023	13.61
537.361	13.45
537.7	13.41
538.038	13.33
538.376	13.23
538.714	13.12
539.052	13.13
539.39	13.11
539.728	13.11
540.066	13.03
540.404	13.12
540.741	13.02
541.079	12.97
541.417	12.9
541.755	12.76
542.092	12.69
542.43	12.6
542.767	12.54
543.105	12.49
543.442	12.36
543.78	12.28
544.117	12.35
544.454	12.39
544.792	12.29
545.129	12.32
545.466	12.4
545.803	12.46
546.14	12.35
546.477	12.25
546.814	12.32
547.151	12.38
547.488	12.27
547.825	12.13
548.162	12.14
548.499	12.11
548.835	12.05
549.172	12.07
549.509	12.19
549.845	12.19
550.182	12.2
550.518	12.14
550.855	12.21
551.191	12.16
551.528	12.16
551.864	12.15
552.2	12.27
552.537	12.19
552.873	12.05
553.209	12.01
553.545	11.8
553.881	11.69
554.217	11.68
554.553	11.74
554.889	11.76
555.225	11.78
555.561	11.58
555.896	11.61
556.232	11.62
556.568	11.6
556.903	11.67
557.239	11.54
557.575	11.56
557.91	11.5
558.245	11.63
558.581	11.52
558.916	11.59
559.252	11.62
559.587	11.59
559.922	11.55
560.257	11.6
560.592	11.57
560.928	11.55
561.263	11.59
561.598	11.7
561.933	11.78
562.267	11.93
562.602	11.93
562.937	12
563.272	12.11
563.607	12.11
563.941	12.27
564.276	12.33
564.611	12.38
564.945	12.42
565.28	12.41
565.614	12.46
565.949	12.51
566.283	12.56
566.617	12.63
566.951	12.75
567.286	12.74
567.62	12.74
567.954	12.76
568.288	12.86
568.622	12.9
568.956	12.86
569.29	12.86
569.624	12.89
569.958	12.93
570.292	13.02
570.626	13.01
570.959	13.14
571.293	13.1
571.627	13.12
571.96	13.2
572.294	13.21
572.627	13.26
572.961	13.32
573.294	13.35
573.627	13.42
573.961	13.5
574.294	13.54
574.627	13.66
574.961	13.66
575.294	13.78
575.627	13.82
575.96	13.87
576.293	13.98
576.626	13.97
576.959	14.05
577.292	14.07
577.624	14.18
577.957	14.29
578.29	14.35
578.623	14.42
578.955	14.48
579.288	14.52
579.62	14.61
579.953	14.69
580.285	14.76
580.618	14.89
580.95	14.97
581.282	15.09
581.615	15.17
581.947	15.19
582.279	15.23
582.611	15.28
582.943	15.28
583.275	15.31
583.607	15.42
583.939	15.47
584.271	15.51
584.603	15.55
584.935	15.65
585.267	15.64
585.598	15.83
585.93	15.91
586.262	15.93
586.593	15.95
586.925	15.97
587.256	16.06
587.588	16.1
587.919	16.25
588.25	16.32
588.582	16.33
588.913	16.35
589.244	16.36
589.575	16.39
589.907	16.46
590.238	16.67
590.569	16.82
590.9	16.9
591.231	16.98
591.562	17.09
591.892	17.08
592.223	17.38
592.554	17.53
592.885	17.69
593.215	17.8
593.546	17.9
593.877	17.97
594.207	17.99
594.538	18.14
594.868	18.24
595.198	18.29
595.529	18.47
595.859	18.66
596.189	18.74
596.52	18.87
596.85	19.01
597.18	19.14
597.51	19.28
597.84	19.44
598.17	19.65
598.5	19.69
598.83	19.85
599.16	20.13
599.489	20.34
599.819	20.62
600.149	20.8
600.479	20.88
600.808	21.08
601.138	21.17
601.467	21.37
601.797	21.65
602.126	21.88
602.456	22.2
602.785	22.42
603.114	22.65
603.443	23.06
603.773	23.32
604.102	23.45
604.431	23.57
604.76	23.78
605.089	23.99
605.418	24.2
605.747	24.44
606.076	24.72
606.405	24.88
606.733	25.2
607.062	25.4
607.391	25.62
607.72	25.83
608.048	25.99
608.377	26.44
608.705	26.83
609.034	27.11
609.362	27.42
609.69	27.79
610.019	28.07
610.347	28.38
610.675	28.63
611.004	28.9
611.332	29.28
611.66	29.42
611.988	29.57
612.316	29.72
612.644	30.05
612.972	30.27
613.3	30.47
613.627	30.79
613.955	31.16
614.283	31.4
614.611	31.77
614.938	32
615.266	32.42
615.593	32.69
615.921	33.01
616.248	33.45
616.576	33.75
616.903	33.81
617.23	34.15
617.558	34.95
617.885	35.34
618.212	35.81
618.539	36.11
618.866	36.52
619.193	36.77
619.52	37.02
619.847	37.35
620.174	37.62
620.501	38.13
620.828	38.29
621.155	38.37
621.481	38.76
621.808	39.1
622.135	39.21
622.461	39.35
622.788	39.4
623.114	39.65
623.441	39.85
623.767	40.16
624.093	40.58
624.42	40.77
624.746	40.94
625.072	41.72
625.398	42.26
625.725	42.09
626.051	42.22
626.377	42.5
626.703	43.05
627.029	43.23
627.354	43.78
627.68	44.33
628.006	44.48
628.332	44.92
628.658	45.46
628.983	45.6
629.309	46.14
629.634	46.24
629.96	46.29
630.285	46.88
630.611	47.22
630.936	47.6
631.262	47.84
631.587	48.44
631.912	48.59
632.237	48.65
632.562	48.92
632.887	49.28
633.213	49.41
633.538	49.53
633.863	50.16
634.187	50.46
634.512	50.59
634.837	50.65
635.162	50.86
635.487	50.98
635.811	51.11
636.136	51.86
636.461	51.89
636.785	51.98
637.11	52.75
637.434	53.16
637.758	53.84
638.083	54.55
638.407	54.86
638.731	55.37
639.056	55.88
639.38	56.4
639.704	56.15
640.028	57.09
640.352	57.62
640.676	58.25
641	58.66
641.324	58.62
641.648	58.8
641.972	59
642.295	59.54
642.619	60.02
642.943	60.28
643.266	60.47
643.59	60.71
643.913	61.19
644.237	61.05
644.56	61.17
644.884	60.84
645.207	61.15
645.53	61.16
645.854	61.73
646.177	61.93
646.5	61.77
646.823	61.7
647.146	62.13
647.469	62.28
647.792	62.5
648.115	62.03
648.438	62.59
648.761	65.37
649.084	66.88
649.406	66.83
649.729	65.48
650.052	64.75
650.374	64.78
650.697	64.64
651.019	64.66
651.342	64.81
651.664	64.84
651.987	64.61
652.309	64.72
652.631	64.79
652.953	65.02
653.276	64.94
653.598	65.11
653.92	65.16
654.242	65.17
654.564	65.22
654.886	65.13
655.208	65.02
655.53	64.93
655.851	64.88
656.173	64.93
656.495	64.72
656.816	63.35
657.138	62
657.46	61.12
657.781	62.29
658.103	63.99
658.424	63.89
658.746	64.87
659.067	64.87
659.388	64.52
659.709	64.51
660.031	64.67
660.352	64.64
660.673	64.87
660.994	64.7
661.315	65.18
661.636	65.31
661.957	65.17
662.278	65.37
662.599	65.89
662.919	66.35
663.24	67.33
663.561	67.85
663.881	67.82
664.202	68.34
664.523	69.03
664.843	69.85
665.164	70
665.484	69.75
665.804	69.46
666.125	69.05
666.445	69.45
666.765	69.35
667.085	69.69
667.405	69.25
667.726	69.62
668.046	69.78
668.366	69.78
668.686	69.95
669.005	70.26
669.325	69.96
669.645	69.93
669.965	69.96
670.285	70.08
670.604	69.53
670.924	69.11
671.243	68.48
671.563	68.37
671.882	69.08
672.202	69.44
672.521	69.44
672.841	69.08
673.16	69.22
673.479	69.28
673.798	69.49
674.117	69.57
674.437	69.19
674.756	69.79
675.075	69.95
675.394	70.32
675.713	70.41
676.031	70.95
676.35	71.32
676.669	71.16
676.988	71.04
677.306	70.78
677.625	70.06
677.944	70.23
678.262	70.48
678.581	71.23
678.899	72.49
679.218	72.08
679.536	71.91
679.854	71.02
680.172	70.78
680.491	70.5
680.809	70.95
681.127	69.75
681.445	69.66
681.763	69.28
682.081	68.99
682.399	69.24
682.717	68.39
683.035	67.96
683.352	68.63
683.67	68.36
683.988	68.13
684.306	68.81
684.623	68.63
684.941	68.51
685.258	69.14
685.576	70.15
685.893	69.91
686.211	70.12
686.528	70.03
686.845	69.27
687.162	69.12
687.48	69.54
687.797	70.01
688.114	69.53
688.431	69.37
688.748	68.97
689.065	70.41
689.382	70.93
689.699	72.17
690.015	72.43
690.332	72.61
690.649	72.23
690.966	72.4
691.282	71.82
691.599	72.02
691.915	71.44
692.232	70.76
692.548	70.93
692.865	70.53
693.181	70.51
693.497	70.45
693.813	70.42
694.13	69.83
694.446	69.93
694.762	70.04
695.078	70.32
695.394	70.95
695.71	71.57
696.026	70.94
696.342	70.84
696.658	71.04
696.973	70.2
697.289	69.56
697.605	69.06
697.92	69.07
698.236	69.82
698.551	69.91
698.867	70.26
699.182	71.32
699.498	70.82
699.813	72.55
700.128	73.27
700.444	73.34
700.759	73.61
701.074	72.43
701.389	71.87
701.704	72.39
702.019	72.72
702.334	72.98
702.649	73.73
702.964	74.52
703.279	74.17
703.594	73.99
703.908	75.22
704.223	74.99
704.538	74.92
704.852	75.74
705.167	76.07
705.481	75.49
705.796	76.15
706.11	74.82
706.425	76.05
706.739	76.31
707.053	75.41
707.368	75.46
707.682	74.92
707.996	73.74
708.31	73.88
708.624	74.4
708.938	75.7
709.252	76.23
709.566	75.06
709.88	74
710.193	73.21
710.507	72.57
710.821	72.43
711.135	71.55
711.448	71.53
711.762	72.13
712.075	73.62
712.389	74.23
712.702	74.08
713.015	74.21
713.329	74.32
713.642	74.33
713.955	74.31
714.269	73.27
714.582	72.7
714.895	72.34
715.208	72.65
715.521	72.65
715.834	73.1
716.147	73.4
716.459	72.43
716.772	71.77
717.085	72.25
717.398	73.23
717.71	72.66
718.023	72.81
718.336	72.2
718.648	72.19
718.961	72.09
719.273	70.66
719.585	69.34
719.898	68.5
720.21	68.5
720.522	67.5
720.834	66.97
721.147	65.68
721.459	64.64
721.771	65.39
722.083	65.48
722.395	65.51
722.707	65.64
723.019	64.71
723.33	64.57
723.642	65.15
723.954	64.72
724.265	65.83
724.577	65.69
724.889	64.89
725.2	64.68
725.512	65.42
725.823	66.16
726.135	67.2
726.446	67.64
726.757	67.94
727.068	69.31
727.38	70.23
727.691	71.18
728.002	70.23
728.313	70.19
728.624	69.56
728.935	70.44
729.246	70.72
729.557	71.35
729.867	71.73
730.178	71.52
730.489	71.55
730.8	72.19
731.11	72.28
731.421	71.98
731.731	72.38
732.042	72.25
732.352	71.91
732.663	71.58
732.973	72.61
733.283	73.01
733.594	72.11
733.904	72.18
734.214	71.5
734.524	71.84
734.834	71.04
735.144	70.21
735.454	69.8
735.764	69.29
736.074	69.89
736.384	71.12
736.694	71.85
737.003	72.62
737.313	71.34
737.623	69.92
737.932	71.34
738.242	71.34
738.551	71.37
738.861	71.21
739.17	70.53
739.479	71.26
739.789	70.44
740.098	71.42
740.407	72.48
740.716	70.05
741.025	69.79
741.334	69.81
741.643	68.52
741.952	69.55
742.261	67.64
742.57	68.49
742.879	66.93
743.188	65.19
743.497	65.27
743.805	65.26
744.114	64.72
744.422	64.26
744.731	63.98
745.04	64.98
745.348	66.75
745.656	63.96
745.965	63.01
746.273	62.2
746.581	61.94
746.889	62.22
747.198	61.49
747.506	62.22
747.814	61.26
748.122	60.96
748.43	62.41
748.738	61.32
749.046	62.32
749.353	62.61
749.661	62.68
749.969	65.35
750.277	65
750.584	65.79
750.892	66.15
751.199	69.04
751.507	68.53
751.814	68.97
752.122	67.02
752.429	66.33
752.736	64.4
753.044	64.43
753.351	65.11
753.658	65.39
753.965	66.81
754.272	64.75
754.579	66.16
754.886	65.99
755.193	65.91
755.5	66.3
755.807	65.1
756.114	65.6
756.42	67.11
756.727	67.25
757.034	67.08
757.34	66.1
757.647	64.98
757.953	64.65
758.26	64.99
758.566	65.97
758.872	64.07
759.179	64.23
759.485	63.77
759.791	63.79
760.097	61.22
760.403	62.01
760.709	62.53
761.015	62.46
761.321	63.11
761.627	61.98
761.933	63.07
762.239	63.15
762.545	60.27
762.851	61.79
763.156	59.83
763.462	61.87
763.767	62.88
764.073	60.3
764.378	58.75
764.684	58.87
764.989	57.58
765.295	58.14
765.6	56.69
765.905	58.24
766.21	56.23
766.515	55.26
766.821	54.14
767.126	52.74
767.431	53.92
767.736	58.45
768.041	57.65
768.345	54.38
768.65	55.19
768.955	59.06
769.26	61.21
769.564	62.44
769.869	59.72
770.174	65.23
770.478	64.68
770.783	68.03
771.087	68.1
771.391	63.41
771.696	68.94
772	76.42
772.304	82.57
772.608	87.21
772.913	86.63
773.217	88.54
773.521	86.4
773.825	86.59
774.129	86.1
774.433	86.54
774.736	83.54
775.04	88.72
775.344	89.58
775.648	90.33
775.951	88.54
776.255	88.06
776.559	84.39
776.862	80.05
777.166	85.81
777.469	86.69
777.772	79.31
778.076	79.26
778.379	80.51
778.682	79.03
778.985	79.1
779.289	76.74
779.592	70.44
779.895	67.15
780.198	65.73
780.501	68.33
780.804	67.13
781.106	73.62
781.409	73.23
781.712	75.96
782.015	76.43
782.317	80.78
782.62	76.51
782.923	75.14
783.225	78.38
783.527	77.95
783.83	75.88
784.132	79.7
784.435	78.69
784.737	69.69
785.039	68.7
785.341	74.1
785.643	70.75
785.945	66.22
786.248	69.79
786.55	74.21
786.851	75.42
787.153	74.98
787.455	72
787.757	71.89
788.059	66.12
788.36	69.1
788.662	65.29
788.964	70.23
789.265	66
789.567	63.25
789.868	63.93
790.17	63.32
790.471	62.71
790.772	63.9
791.074	67.7
791.375	70.82
791.676	65.27
791.977	67.57
792.278	70.01
792.579	72.97
792.88	72.13
793.181	74.66
793.482	79.28
793.783	78.15
794.083	71
794.384	75.3
794.685	76.71
794.986	72.97
795.286	69.01
795.587	66.03
795.887	67.36
796.188	65.68
796.488	60.02
796.788	63.53
797.089	63.9
797.389	65.31
797.689	66.51
797.989	66.02
798.289	58.75
798.589	59.33
798.889	53.5
799.189	60.48
799.489	61.67
799.789	60.93
800.089	53.19
800.389	58.9
800.688	54.6
800.988	55.85
801.288	47.42
801.587	55.07
801.887	42.12
802.186	35.78
802.486	28.73
802.785	25.27
803.085	36.93
803.384	38.26
803.683	27.64
803.982	34.27
804.281	31.2
804.58	41.32
804.879	41.58
805.178	42.49
805.477	44.99
805.776	47.04
806.075	55.66
806.374	58.94
806.673	50.49
806.971	47.96
807.27	40.28
807.569	42.26
807.867	39.09
808.166	56.08
808.464	60.31
808.763	50.59
809.061	40.24
809.359	47.39
809.658	71.62
809.956	128.89
810.254	166.94
810.552	186.67
810.85	143.86
811.148	137.15
811.446	141.54
811.744	132.05
812.042	150.89
812.34	131.95
812.638	174.36
812.935	204.59
813.233	193.71
813.531	154.55
813.828	145.56
814.126	163.96
814.423	201.96
814.721	239.58
815.018	293.07
815.316	234.94
815.613	186.67
815.91	208.66
816.207	276.15
816.504	251.01
816.802	204.4
817.099	143.4
817.396	83.76
817.693	76.42
817.99	73.96
818.286	60.09
818.583	73.78
818.88	71.01
819.177	74.77
819.473	69.3
819.77	52.19
820.067	25.21
820.363	30.25
820.66	23.37
820.956	26.27
821.252	6.14
821.549	3.22
821.845	2.9
822.141	9.54
822.437	17.87
822.734	29.01
823.03	41.53
823.326	41.01
823.622	36.18
823.918	40.48
824.213	46.99
824.509	56.29
824.805	63.41
825.101	61.09
825.397	63.33
825.692	67.24
825.988	52.98
826.283	74.82
826.579	76.55
826.874	74.32
827.17	97.37
827.465	100.05
827.76	111.36
828.056	111.84
828.351	114.27
828.646	119.61
828.941	120.21
829.236	117.13
829.531	110.4
829.826	93.8
830.121	107.59
830.416	90.05
830.711	85.62
831.006	81.23
831.3	85.05
831.595	76.88
831.89	70.6
832.184	75.18
832.479	75.7
832.773	81.31
833.068	71.88
833.362	80.61
833.656	69.67
833.951	69.21
834.245	76.3
834.539	65.59
834.833	58.48
835.127	55.46
835.421	63.29
835.715	59.43
836.009	54.83
836.303	57.86
836.597	46.9
836.891	44.94
837.185	43
837.478	36.31
837.772	31.83
838.066	27.01
838.359	30.34
838.653	17.16
838.946	29.24
839.24	25.95
839.533	21.8
839.826	18.89
840.119	-7.7
840.413	6.74
840.706	-6.09
840.999	-11.21
841.292	-19.06
841.585	-21.54
841.878	-2.51
842.171	-10.11
842.464	-16.16
842.757	-29.8
843.049	-18.21
843.342	-21.94
843.635	-42.83
843.927	-35.77
844.22	-43.12
844.513	-48.69
844.805	-41.19
845.098	-33.38
845.39	-51.69
845.682	-65.21
845.975	-56.93
846.267	-46.66
846.559	-29.48
846.851	-13.72
847.143	-7.88
847.435	31.43
847.727	4.64
848.019	4.73
848.311	15.78
848.603	23.47
848.895	22.81
849.186	12.41
849.478	19.39
849.77	29.21
850.061	27.71
850.353	30.42
850.645	37.03
850.936	48.09
851.227	37.16
851.519	41.51
851.81	39.71
852.101	34.42
852.393	41.2
852.684	53.47
852.975	65
853.266	54.48
853.557	42.58
853.848	35.2
854.139	34.12
854.43	39.69
854.72	37.24
855.011	38.02
855.302	56.93
855.593	48.53
855.883	30.87
856.174	23.7
856.464	27.47
856.755	12.96
857.045	6.05
857.336	18.13
857.626	-10.96
857.916	29.17
858.206	9.84
858.497	33.93
858.787	32.41
859.077	24.59
859.367	22.7
859.657	22.25
859.947	21.01
860.237	2.41
860.527	35.73
860.816	41.37
861.106	25.87
861.396	-17.63
861.685	-28.13
861.975	-44.57
862.265	-39.18
862.554	-42.47
862.844	-99.05
863.133	-135.22
863.422	-84.46
863.712	-50.14
864.001	-26.01
864.29	-29.53
864.579	-50.35
864.868	-42.42
865.157	-81.33
865.446	-71.29
865.735	-85
866.024	-108.07
866.313	-99
866.602	-125.26
866.891	-174.89
867.179	-249.48
867.468	-162.07
