Data from T2__Reflection__75__00-50-31-756.txt Node

Date: Sat Jun 05 00:50:31 CEST 2021
User: mabdelazizm
Spectrometer: FLMS18565
Trigger mode: 0
Integration Time (sec): 2.000000E0
Scans to average: 1
Electric dark correction enabled: true
Nonlinearity correction enabled: false
Boxcar width: 12
XAxis mode: Wavelengths
Number of Pixels in Spectrum: 2048
>>>>>Begin Spectral Data<<<<<
179.071	166.59
179.452	229.91
179.833	267
180.214	281.01
180.595	575
180.977	2072.06
181.358	538.72
181.739	503.57
182.12	252.03
182.501	276.05
182.882	319.08
183.262	517.11
183.643	-1104.45
184.024	-187.09
184.405	-84.14
184.786	-45.31
185.166	-5.03
185.547	-1.22
185.927	10.31
186.308	19.08
186.689	22.53
187.069	24.85
187.449	22.3
187.83	22.6
188.21	20.25
188.59	17.99
188.971	19.97
189.351	17.79
189.731	19.94
190.111	5.53
190.491	0.53
190.871	-4.58
191.251	0.06
191.631	4.47
192.011	3.78
192.391	5.12
192.771	9.43
193.151	11.68
193.531	9.86
193.91	10.14
194.29	9.8
194.67	10.06
195.049	9.1
195.429	9.25
195.808	6.36
196.188	4.22
196.567	2.79
196.946	2.05
197.326	0.47
197.705	0.29
198.084	2.66
198.464	3.95
198.843	3.84
199.222	2.32
199.601	9.81
199.98	9.99
200.359	10.38
200.738	11.79
201.117	9.35
201.496	9.15
201.875	6.5
202.254	3.3
202.632	2.28
203.011	3.35
203.39	3.21
203.768	4.17
204.147	6.08
204.525	4.78
204.904	4
205.282	4.17
205.661	3.75
206.039	4.5
206.418	4.06
206.796	5.04
207.174	2.22
207.552	0.91
207.931	-0.15
208.309	2.74
208.687	0.76
209.065	-1.53
209.443	-1.7
209.821	-1.99
210.199	-4.03
210.577	-4.19
210.954	-2.87
211.332	-0.69
211.71	0.57
212.088	1.16
212.465	-0.24
212.843	0.18
213.221	2.23
213.598	-0.4
213.976	-1.5
214.353	-1.41
214.731	0.88
215.108	0.76
215.485	-1.33
215.863	-3.12
216.24	-3.06
216.617	0.06
216.994	1.28
217.371	-0.81
217.749	-1.52
218.126	0.25
218.503	1.81
218.88	0.67
219.256	1.73
219.633	2.33
220.01	2.08
220.387	2.8
220.764	2.56
221.14	2.16
221.517	1.87
221.894	1.19
222.27	1.48
222.647	0.81
223.023	1.73
223.4	2.43
223.776	2.35
224.153	0.66
224.529	1.02
224.905	3.19
225.282	3.57
225.658	2.75
226.034	2.09
226.41	1.64
226.786	1.59
227.162	1.34
227.538	1.31
227.914	0.56
228.29	1
228.666	0.38
229.042	0.47
229.418	0.85
229.793	0.93
230.169	0.98
230.545	1.09
230.92	1.27
231.296	1.37
231.672	1.54
232.047	1.25
232.422	1
232.798	0.94
233.173	0.89
233.549	1.16
233.924	1
234.299	0.53
234.674	0.54
235.05	0.9
235.425	1.06
235.8	0.96
236.175	1.08
236.55	1.13
236.925	1.18
237.3	1.22
237.675	1.29
238.049	1.37
238.424	1.35
238.799	1.13
239.174	1.12
239.548	1.01
239.923	0.85
240.297	0.65
240.672	0.67
241.046	0.59
241.421	0.62
241.795	0.61
242.17	0.55
242.544	0.57
242.918	0.45
243.293	0.43
243.667	0.38
244.041	0.4
244.415	0.32
244.789	0.18
245.163	0.22
245.537	0.26
245.911	0.22
246.285	0.11
246.659	0.07
247.033	0.03
247.406	-0.04
247.78	-0.13
248.154	-0.07
248.528	-0.12
248.901	-0.06
249.275	-0.02
249.648	0.02
250.022	-0.02
250.395	-0.02
250.769	-0.03
251.142	0.02
251.515	0.08
251.888	0.06
252.262	0.11
252.635	0.11
253.008	0.08
253.381	0.04
253.754	0.02
254.127	0.09
254.5	0.05
254.873	-0.04
255.246	-0.05
255.619	-0.01
255.992	0.05
256.364	0.05
256.737	0.09
257.11	0.17
257.483	0.19
257.855	0.18
258.228	0.15
258.6	0.18
258.973	0.25
259.345	0.32
259.718	0.3
260.09	0.33
260.462	0.28
260.834	0.28
261.207	0.24
261.579	0.24
261.951	0.28
262.323	0.34
262.695	0.4
263.067	0.41
263.439	0.43
263.811	0.49
264.183	0.53
264.555	0.53
264.927	0.52
265.298	0.54
265.67	0.52
266.042	0.55
266.413	0.5
266.785	0.46
267.156	0.46
267.528	0.49
267.899	0.48
268.271	0.43
268.642	0.37
269.013	0.33
269.385	0.32
269.756	0.3
270.127	0.32
270.498	0.34
270.87	0.36
271.241	0.35
271.612	0.33
271.983	0.28
272.354	0.29
272.724	0.22
273.095	0.22
273.466	0.16
273.837	0.15
274.208	0.2
274.578	0.13
274.949	0.14
275.32	0.13
275.69	0.13
276.061	0.18
276.431	0.19
276.802	0.12
277.172	0.11
277.542	0.14
277.913	0.17
278.283	0.24
278.653	0.28
279.023	0.28
279.394	0.28
279.764	0.31
280.134	0.25
280.504	0.29
280.874	0.28
281.244	0.28
281.614	0.24
281.983	0.29
282.353	0.3
282.723	0.38
283.093	0.37
283.462	0.36
283.832	0.35
284.202	0.36
284.571	0.27
284.941	0.23
285.31	0.21
285.68	0.21
286.049	0.2
286.418	0.22
286.788	0.22
287.157	0.21
287.526	0.19
287.895	0.14
288.264	0.16
288.633	0.14
289.002	0.1
289.371	0.13
289.74	0.07
290.109	0.08
290.478	0.1
290.847	0.13
291.216	0.08
291.585	0.06
291.953	-0
292.322	0.03
292.691	0
293.059	-0
293.428	-0.01
293.796	0.07
294.165	0.12
294.533	0.1
294.901	0.08
295.27	0.1
295.638	0.08
296.006	0.02
296.374	0.02
296.743	-0.01
297.111	-0.02
297.479	-0.05
297.847	-0.08
298.215	-0.06
298.583	-0.09
298.95	-0.08
299.318	-0.01
299.686	0.02
300.054	-0.03
300.422	-0.04
300.789	-0.02
301.157	-0
301.525	-0.07
301.892	-0.06
302.26	-0.02
302.627	-0.05
302.994	-0.07
303.362	-0.09
303.729	-0.08
304.097	-0.04
304.464	0.01
304.831	0.01
305.198	0
305.565	-0.02
305.932	-0.06
306.299	-0.08
306.666	-0.04
307.033	-0.07
307.4	-0.08
307.767	-0.05
308.134	-0.06
308.501	-0.11
308.867	-0.11
309.234	-0.08
309.601	-0.02
309.967	-0.06
310.334	-0.09
310.701	-0.06
311.067	-0.08
311.433	-0.06
311.8	-0.06
312.166	-0.09
312.533	-0.08
312.899	-0.1
313.265	-0.15
313.631	-0.21
313.997	-0.22
314.363	-0.19
314.729	-0.2
315.096	-0.21
315.461	-0.15
315.827	-0.18
316.193	-0.12
316.559	-0.13
316.925	-0.09
317.291	-0.07
317.656	-0.1
318.022	-0.18
318.388	-0.2
318.753	-0.27
319.119	-0.27
319.484	-0.22
319.85	-0.25
320.215	-0.27
320.581	-0.32
320.946	-0.32
321.311	-0.26
321.676	-0.27
322.042	-0.26
322.407	-0.24
322.772	-0.18
323.137	-0.18
323.502	-0.18
323.867	-0.17
324.232	-0.18
324.597	-0.17
324.962	-0.13
325.327	-0.17
325.691	-0.13
326.056	-0.15
326.421	-0.18
326.785	-0.18
327.15	-0.16
327.514	-0.18
327.879	-0.15
328.243	-0.17
328.608	-0.15
328.972	-0.16
329.337	-0.12
329.701	-0.08
330.065	-0.11
330.429	-0.18
330.794	-0.17
331.158	-0.15
331.522	-0.2
331.886	-0.26
332.25	-0.26
332.614	-0.26
332.978	-0.3
333.342	-0.29
333.705	-0.35
334.069	-0.39
334.433	-0.38
334.797	-0.4
335.16	-0.41
335.524	-0.41
335.887	-0.4
336.251	-0.39
336.614	-0.4
336.978	-0.42
337.341	-0.4
337.705	-0.45
338.068	-0.37
338.431	-0.36
338.794	-0.42
339.158	-0.38
339.521	-0.37
339.884	-0.42
340.247	-0.47
340.61	-0.46
340.973	-0.47
341.336	-0.45
341.699	-0.45
342.062	-0.4
342.424	-0.37
342.787	-0.4
343.15	-0.49
343.512	-0.53
343.875	-0.54
344.238	-0.56
344.6	-0.56
344.963	-0.56
345.325	-0.56
345.688	-0.52
346.05	-0.54
346.412	-0.56
346.775	-0.52
347.137	-0.57
347.499	-0.59
347.861	-0.53
348.223	-0.57
348.585	-0.53
348.947	-0.47
349.309	-0.46
349.671	-0.45
350.033	-0.37
350.395	-0.41
350.757	-0.42
351.118	-0.48
351.48	-0.49
351.842	-0.45
352.203	-0.35
352.565	-0.32
352.927	-0.3
353.288	-0.31
353.65	-0.29
354.011	-0.32
354.372	-0.3
354.734	-0.34
355.095	-0.32
355.456	-0.36
355.817	-0.41
356.179	-0.45
356.54	-0.45
356.901	-0.53
357.262	-0.48
357.623	-0.51
357.984	-0.5
358.345	-0.49
358.705	-0.55
359.066	-0.63
359.427	-0.59
359.788	-0.56
360.148	-0.52
360.509	-0.48
360.87	-0.44
361.23	-0.46
361.591	-0.47
361.951	-0.49
362.312	-0.48
362.672	-0.43
363.032	-0.4
363.393	-0.4
363.753	-0.35
364.113	-0.38
364.473	-0.35
364.833	-0.33
365.193	-0.29
365.553	-0.22
365.913	-0.27
366.273	-0.24
366.633	-0.18
366.993	-0.18
367.353	-0.2
367.713	-0.16
368.072	-0.07
368.432	-0.06
368.792	-0.06
369.151	-0.11
369.511	-0.17
369.87	-0.18
370.23	-0.15
370.589	-0.12
370.949	-0.16
371.308	-0.14
371.667	-0.18
372.027	-0.16
372.386	-0.18
372.745	-0.2
373.104	-0.13
373.463	-0.07
373.822	-0.08
374.181	-0.07
374.54	-0.08
374.899	-0.03
375.258	-0.04
375.617	-0.08
375.975	-0.16
376.334	-0.17
376.693	-0.12
377.052	-0.16
377.41	-0.18
377.769	-0.23
378.127	-0.14
378.486	-0.1
378.844	-0.06
379.202	-0.11
379.561	-0.11
379.919	-0.08
380.277	-0.12
380.636	-0.14
380.994	-0.2
381.352	-0.23
381.71	-0.23
382.068	-0.25
382.426	-0.32
382.784	-0.25
383.142	-0.25
383.5	-0.27
383.857	-0.26
384.215	-0.32
384.573	-0.35
384.931	-0.34
385.288	-0.36
385.646	-0.41
386.003	-0.41
386.361	-0.41
386.718	-0.37
387.076	-0.37
387.433	-0.36
387.791	-0.41
388.148	-0.37
388.505	-0.42
388.862	-0.48
389.22	-0.43
389.577	-0.44
389.934	-0.4
390.291	-0.42
390.648	-0.46
391.005	-0.43
391.362	-0.34
391.718	-0.37
392.075	-0.39
392.432	-0.43
392.789	-0.39
393.145	-0.4
393.502	-0.39
393.859	-0.45
394.215	-0.44
394.572	-0.39
394.928	-0.45
395.285	-0.51
395.641	-0.55
395.997	-0.57
396.354	-0.63
396.71	-0.57
397.066	-0.63
397.422	-0.58
397.778	-0.52
398.134	-0.55
398.491	-0.55
398.846	-0.56
399.202	-0.57
399.558	-0.54
399.914	-0.61
400.27	-0.65
400.626	-0.69
400.981	-0.73
401.337	-0.65
401.693	-0.66
402.048	-0.58
402.404	-0.55
402.759	-0.42
403.115	-0.37
403.47	-0.35
403.826	-0.31
404.181	-0.33
404.536	-0.38
404.892	-0.38
405.247	-0.41
405.602	-0.49
405.957	-0.48
406.312	-0.49
406.667	-0.49
407.022	-0.49
407.377	-0.45
407.732	-0.4
408.087	-0.33
408.442	-0.33
408.796	-0.34
409.151	-0.29
409.506	-0.3
409.86	-0.24
410.215	-0.22
410.57	-0.24
410.924	-0.27
411.279	-0.26
411.633	-0.22
411.987	-0.27
412.342	-0.31
412.696	-0.34
413.05	-0.25
413.404	-0.11
413.758	-0.04
414.113	-0.02
414.467	0.05
414.821	0.08
415.175	0.12
415.529	0.12
415.882	0.18
416.236	0.2
416.59	0.2
416.944	0.23
417.298	0.26
417.651	0.3
418.005	0.26
418.358	0.38
418.712	0.39
419.065	0.31
419.419	0.32
419.772	0.3
420.126	0.3
420.479	0.27
420.832	0.3
421.185	0.34
421.539	0.35
421.892	0.42
422.245	0.34
422.598	0.32
422.951	0.37
423.304	0.33
423.657	0.37
424.01	0.28
424.363	0.32
424.715	0.29
425.068	0.32
425.421	0.38
425.773	0.33
426.126	0.38
426.479	0.41
426.831	0.41
427.184	0.38
427.536	0.46
427.889	0.43
428.241	0.46
428.593	0.46
428.945	0.52
429.298	0.5
429.65	0.53
430.002	0.45
430.354	0.45
430.706	0.41
431.058	0.47
431.41	0.46
431.762	0.43
432.114	0.41
432.466	0.35
432.817	0.43
433.169	0.38
433.521	0.41
433.872	0.36
434.224	0.27
434.576	0.3
434.927	0.24
435.279	0.23
435.63	0.16
435.981	0.11
436.333	0.06
436.684	0.07
437.035	0.07
437.387	0.13
437.738	0.05
438.089	0.08
438.44	0.07
438.791	0.04
439.142	0.14
439.493	0.1
439.844	0.07
440.195	0.09
440.545	0.23
440.896	0.32
441.247	0.4
441.598	0.34
441.948	0.33
442.299	0.3
442.649	0.23
443	0.25
443.35	0.21
443.701	0.1
444.051	0.15
444.401	0.2
444.752	0.25
445.102	0.22
445.452	0.28
445.802	0.29
446.152	0.28
446.502	0.38
446.852	0.36
447.202	0.4
447.552	0.5
447.902	0.51
448.252	0.57
448.602	0.05
448.952	-0.02
449.301	-0.05
449.651	-0.07
450.001	-0.06
450.35	0
450.7	0.03
451.049	0.02
451.399	0.11
451.748	0.15
452.097	0.17
452.447	0.24
452.796	0.21
453.145	0.37
453.494	0.32
453.843	0.27
454.193	0.24
454.542	0.32
454.891	0.36
455.239	0.23
455.588	0.15
455.937	0.21
456.286	0.26
456.635	0.23
456.984	0.21
457.332	0.8
457.681	0.9
458.03	0.95
458.378	0.98
458.727	1
459.075	1.04
459.423	1.16
459.772	1.18
460.12	1.17
460.468	1.24
460.817	1.36
461.165	1.49
461.513	1.5
461.861	1.49
462.209	1.51
462.557	1.58
462.905	1.61
463.253	1.55
463.601	1.62
463.949	1.71
464.297	1.83
464.644	1.75
464.992	1.69
465.34	1.67
465.687	1.77
466.035	1.84
466.383	1.82
466.73	1.75
467.078	1.82
467.425	1.77
467.772	1.78
468.12	1.65
468.467	1.76
468.814	1.84
469.161	1.75
469.508	1.66
469.856	1.59
470.203	1.62
470.55	1.48
470.897	1.57
471.243	1.6
471.59	1.57
471.937	1.53
472.284	1.47
472.631	1.46
472.977	1.39
473.324	1.49
473.671	1.44
474.017	1.49
474.364	1.32
474.71	1.26
475.057	1.21
475.403	1.11
475.749	1.02
476.096	1.01
476.442	1.08
476.788	1.06
477.134	0.99
477.48	0.92
477.826	0.93
478.172	0.93
478.518	0.93
478.864	0.97
479.21	1.02
479.556	0.9
479.902	0.86
480.248	0.87
480.593	0.86
480.939	0.88
481.285	0.87
481.63	0.93
481.976	0.84
482.321	0.85
482.667	0.83
483.012	0.96
483.357	1
483.703	1.08
484.048	1.23
484.393	1.34
484.738	1.45
485.084	1.47
485.429	1.6
485.774	1.75
486.119	1.83
486.464	2
486.808	2.14
487.153	2.37
487.498	2.51
487.843	2.68
488.188	2.94
488.532	3.17
488.877	3.47
489.222	3.75
489.566	4.07
489.911	4.4
490.255	4.71
490.6	5.15
490.944	5.56
491.288	5.95
491.633	6.3
491.977	6.75
492.321	7.2
492.665	7.57
493.009	7.95
493.353	8.43
493.697	8.89
494.041	9.4
494.385	9.93
494.729	10.52
495.073	11.05
495.417	11.69
495.76	12.26
496.104	12.83
496.448	13.42
496.791	14
497.135	14.62
497.479	15.22
497.822	15.78
498.165	16.37
498.509	16.96
498.852	17.49
499.196	18.1
499.539	18.71
499.882	19.33
500.225	20.01
500.568	20.53
500.911	21.1
501.254	21.72
501.597	22.33
501.94	22.86
502.283	23.48
502.626	24.07
502.969	24.51
503.312	25.01
503.654	25.46
503.997	25.92
504.34	26.45
504.682	27.03
505.025	27.49
505.367	28.03
505.71	28.48
506.052	28.86
506.395	29.44
506.737	29.94
507.079	30.39
507.421	31
507.764	31.44
508.106	31.86
508.448	32.28
508.79	32.62
509.132	33.04
509.474	33.43
509.816	33.74
510.158	34.05
510.499	34.41
510.841	34.68
511.183	34.95
511.525	35.33
511.866	35.65
512.208	35.9
512.549	36.18
512.891	36.3
513.232	36.45
513.574	36.81
513.915	37.07
514.256	37.29
514.598	37.64
514.939	37.99
515.28	38.06
515.621	38.31
515.962	38.41
516.303	38.62
516.644	38.94
516.985	39.05
517.326	39.25
517.667	39.5
518.008	39.66
518.349	39.91
518.69	40.26
519.03	40.47
519.371	40.66
519.712	40.88
520.052	40.96
520.393	41.12
520.733	41.34
521.074	41.5
521.414	41.7
521.754	42.01
522.095	42.18
522.435	42.28
522.775	42.44
523.115	42.48
523.455	42.44
523.795	42.64
524.135	42.73
524.475	43.04
524.815	43.16
525.155	43.22
525.495	43.53
525.835	43.67
526.175	43.69
526.514	43.75
526.854	43.86
527.194	43.84
527.533	44.01
527.873	44.13
528.212	44.25
528.552	44.5
528.891	44.69
529.23	44.89
529.57	44.89
529.909	45.08
530.248	45.08
530.587	45.17
530.927	45.32
531.266	45.41
531.605	45.46
531.944	45.58
532.283	45.73
532.621	45.84
532.96	45.88
533.299	45.95
533.638	46
533.977	45.84
534.315	45.99
534.654	46.1
534.992	46.19
535.331	46.22
535.67	46.34
536.008	46.17
536.346	46.1
536.685	46.2
537.023	46.19
537.361	46.2
537.7	46.18
538.038	46.33
538.376	46.44
538.714	46.43
539.052	46.36
539.39	46.43
539.728	46.59
540.066	46.78
540.404	46.81
540.741	46.76
541.079	46.85
541.417	46.8
541.755	46.83
542.092	46.85
542.43	47.05
542.767	46.98
543.105	46.97
543.442	47.07
543.78	47.11
544.117	47.11
544.454	47.35
544.792	47.46
545.129	47.49
545.466	47.61
545.803	47.67
546.14	47.67
546.477	47.7
546.814	47.69
547.151	47.84
547.488	47.93
547.825	47.85
548.162	47.87
548.499	47.86
548.835	47.91
549.172	48.07
549.509	48.13
549.845	48.16
550.182	48.18
550.518	48.26
550.855	48.34
551.191	48.44
551.528	48.38
551.864	48.28
552.2	48.28
552.537	48.28
552.873	48.27
553.209	48.4
553.545	48.32
553.881	48.2
554.217	48.32
554.553	48.6
554.889	48.55
555.225	48.68
555.561	48.66
555.896	48.65
556.232	48.74
556.568	48.77
556.903	48.67
557.239	48.65
557.575	48.71
557.91	48.66
558.245	48.79
558.581	48.79
558.916	48.69
559.252	48.58
559.587	48.52
559.922	48.63
560.257	48.8
560.592	48.8
560.928	48.87
561.263	48.99
561.598	49.04
561.933	49.27
562.267	49.5
562.602	49.32
562.937	49.27
563.272	49.49
563.607	49.49
563.941	49.67
564.276	49.89
564.611	50.1
564.945	50.33
565.28	50.72
565.614	50.75
565.949	50.68
566.283	50.73
566.617	50.78
566.951	50.94
567.286	51.16
567.62	51.31
567.954	51.55
568.288	51.66
568.622	51.67
568.956	51.71
569.29	51.7
569.624	51.61
569.958	51.71
570.292	51.66
570.626	51.6
570.959	51.64
571.293	51.75
571.627	51.76
571.96	51.72
572.294	51.5
572.627	51.45
572.961	51.43
573.294	51.2
573.627	51.06
573.961	51.18
574.294	51.28
574.627	51.37
574.961	51.48
575.294	51.5
575.627	51.42
575.96	51.5
576.293	51.28
576.626	51.24
576.959	51.18
577.292	51.15
577.624	51.19
577.957	51.26
578.29	51.27
578.623	51.27
578.955	51.23
579.288	51.31
579.62	51.19
579.953	51.15
580.285	51.12
580.618	51.3
580.95	51.36
581.282	51.35
581.615	51.47
581.947	51.53
582.279	51.44
582.611	51.38
582.943	51.4
583.275	51.32
583.607	51.38
583.939	51.35
584.271	51.25
584.603	51.37
584.935	51.4
585.267	51.51
585.598	51.63
585.93	51.7
586.262	51.77
586.593	51.6
586.925	51.65
587.256	51.68
587.588	51.71
587.919	51.7
588.25	51.68
588.582	51.75
588.913	51.63
589.244	51.61
589.575	51.62
589.907	51.56
590.238	51.63
590.569	51.75
590.9	51.89
591.231	51.97
591.562	51.94
591.892	51.92
592.223	52.03
592.554	52.17
592.885	52.23
593.215	52.25
593.546	52.15
593.877	52.13
594.207	52.11
594.538	51.89
594.868	51.99
595.198	51.85
595.529	51.83
595.859	51.78
596.189	51.87
596.52	51.83
596.85	51.91
597.18	52.04
597.51	52.09
597.84	52.06
598.17	52.1
598.5	52.06
598.83	52.17
599.16	52.12
599.489	51.92
599.819	51.92
600.149	51.92
600.479	51.84
600.808	51.82
601.138	51.71
601.467	51.77
601.797	51.79
602.126	51.75
602.456	51.85
602.785	51.97
603.114	52.01
603.443	52.21
603.773	52.35
604.102	52.36
604.431	52.32
604.76	52.39
605.089	52.35
605.418	52.32
605.747	52.23
606.076	52.31
606.405	52.31
606.733	52.32
607.062	52.22
607.391	52.16
607.72	52.25
608.048	52.4
608.377	52.24
608.705	52.28
609.034	52.12
609.362	52.27
609.69	52.34
610.019	52.44
610.347	52.42
610.675	52.24
611.004	52.24
611.332	52.11
611.66	52.02
611.988	51.89
612.316	51.96
612.644	51.88
612.972	51.91
613.3	51.79
613.627	51.87
613.955	52.03
614.283	52.02
614.611	52.22
614.938	52.16
615.266	52.05
615.593	51.92
615.921	51.9
616.248	51.74
616.576	51.91
616.903	51.98
617.23	52.22
617.558	52.18
617.885	52.08
618.212	52.05
618.539	52.28
618.866	52.24
619.193	52.43
619.52	52.58
619.847	52.61
620.174	52.73
620.501	52.49
620.828	52.72
621.155	52.74
621.481	52.84
621.808	52.84
622.135	52.81
622.461	52.93
622.788	52.77
623.114	52.82
623.441	52.88
623.767	53.31
624.093	53.37
624.42	53.36
624.746	53.43
625.072	53.64
625.398	53.42
625.725	53.26
626.051	53.19
626.377	53.28
626.703	53.03
627.029	53.34
627.354	53.08
627.68	53.01
628.006	53.23
628.332	53.07
628.658	53.25
628.983	52.92
629.309	52.67
629.634	52.93
629.96	52.95
630.285	52.81
630.611	52.36
630.936	52.35
631.262	52.5
631.587	52.65
631.912	52.27
632.237	52.4
632.562	52.45
632.887	52.28
633.213	52.07
633.538	52.22
633.863	52.56
634.187	52.48
634.512	52.32
634.837	52.46
635.162	52.08
635.487	52.15
635.811	52.55
636.136	52.7
636.461	52.71
636.785	52.58
637.11	53.19
637.434	54.05
637.758	54.11
638.083	54.2
638.407	53.99
638.731	54.15
639.056	54.15
639.38	53.96
639.704	53.95
640.028	54.29
640.352	54.39
640.676	54.63
641	54.63
641.324	54.63
641.648	54.14
641.972	53.81
642.295	53.92
642.619	54.01
642.943	53.67
643.266	53.72
643.59	53.53
643.913	53.49
644.237	52.8
644.56	52.82
644.884	52.85
645.207	52.89
645.53	52.29
645.854	52.31
646.177	51.79
646.5	51.94
646.823	52.4
647.146	52.68
647.469	52.78
647.792	52.71
648.115	51.88
648.438	52
648.761	53.76
649.084	54.68
649.406	54.85
649.729	54.18
650.052	53.64
650.374	53.19
650.697	52.95
651.019	52.92
651.342	52.69
651.664	52.7
651.987	52.48
652.309	52.73
652.631	52.89
652.953	52.84
653.276	52.66
653.598	52.7
653.92	52.54
654.242	52.66
654.564	52.6
654.886	52.44
655.208	52.36
655.53	52.43
655.851	52.41
656.173	52.79
656.495	52.84
656.816	52.02
657.138	50.98
657.46	49.71
657.781	49.54
658.103	50.28
658.424	50.93
658.746	51.65
659.067	52.12
659.388	52.48
659.709	53.27
660.031	53.74
660.352	53.32
660.673	52.9
660.994	53.51
661.315	54.15
661.636	53.65
661.957	54.77
662.278	54.86
662.599	54.73
662.919	54.69
663.24	54.31
663.561	53.28
663.881	53.44
664.202	52.34
664.523	51.37
664.843	50.95
665.164	51.3
665.484	50.86
665.804	50.34
666.125	50.09
666.445	50.26
666.765	50.61
667.085	51.02
667.405	51.37
667.726	50.94
668.046	51.33
668.366	51.07
668.686	50.82
669.005	50.71
669.325	51.09
669.645	51.75
669.965	50.51
670.285	51.19
670.604	51.31
670.924	51.85
671.243	52.45
671.563	52.81
671.882	52.72
672.202	52.71
672.521	52.58
672.841	52.9
673.16	53
673.479	54.17
673.798	54.78
674.117	54.55
674.437	54.11
674.756	53.84
675.075	52.89
675.394	53.14
675.713	53.19
676.031	52.66
676.35	52.92
676.669	52.84
676.988	53.06
677.306	51.96
677.625	52.48
677.944	53.57
678.262	52.58
678.581	53.18
678.899	52.97
679.218	52.27
679.536	52.36
679.854	52.25
680.172	52.79
680.491	53.01
680.809	52.35
681.127	52.18
681.445	51.46
681.763	51.39
682.081	51.73
682.399	52.69
682.717	52.74
683.035	53.2
683.352	52.97
683.67	52.76
683.988	53.14
684.306	52.83
684.623	53.2
684.941	53.49
685.258	53.89
685.576	52.81
685.893	51.72
686.211	52.28
686.528	51.79
686.845	51.57
687.162	52
687.48	51.69
687.797	52.12
688.114	52.35
688.431	52.71
688.748	53.89
689.065	54.2
689.382	54.23
689.699	54.09
690.015	54.14
690.332	54.58
690.649	54.3
690.966	54.43
691.282	55.29
691.599	54.97
691.915	53.63
692.232	53.73
692.548	53.61
692.865	52.94
693.181	52.84
693.497	53.86
693.813	55.34
694.13	55.03
694.446	55.03
694.762	55.59
695.078	56.71
695.394	56.87
695.71	55.98
696.026	55.44
696.342	55.17
696.658	54.68
696.973	54.51
697.289	54.19
697.605	54.13
697.92	53.96
698.236	53.11
698.551	52.9
698.867	54.33
699.182	53.71
699.498	53.6
699.813	55.41
700.128	56.18
700.444	55.21
700.759	54.93
701.074	54.35
701.389	54.46
701.704	53.44
702.019	53.13
702.334	53.75
702.649	53.05
702.964	51.67
703.279	51.68
703.594	51.31
703.908	51.7
704.223	51.59
704.538	52.56
704.852	52.9
705.167	53.49
705.481	53.76
705.796	53.27
706.11	52.27
706.425	52.51
706.739	51.75
707.053	51.92
707.368	52.24
707.682	52.57
707.996	53.06
708.31	53.23
708.624	54
708.938	54.44
709.252	53.36
709.566	52.83
709.88	52.83
710.193	52.08
710.507	52.1
710.821	53.22
711.135	53.98
711.448	55.78
711.762	56.25
712.075	56.47
712.389	56.07
712.702	55.23
713.015	54.77
713.329	54.37
713.642	54.65
713.955	55.54
714.269	55.79
714.582	55.13
714.895	54.96
715.208	56.03
715.521	55.65
715.834	53.56
716.147	54.08
716.459	54.43
716.772	54.81
717.085	55.57
717.398	56.15
717.71	57.15
718.023	58.21
718.336	57.7
718.648	57.81
718.961	57.35
719.273	55.91
719.585	54.55
719.898	55.23
720.21	54.49
720.522	54.99
720.834	54.47
721.147	54.89
721.459	54.96
721.771	55.49
722.083	54.66
722.395	54.23
722.707	53.67
723.019	53.04
723.33	52.43
723.642	53.98
723.954	53.3
724.265	52.42
724.577	51.5
724.889	52.21
725.2	51.15
725.512	50.45
725.823	51.36
726.135	50.95
726.446	50.81
726.757	50.74
727.068	50.95
727.38	50.58
727.691	49.6
728.002	49.75
728.313	49.65
728.624	50.97
728.935	50.89
729.246	50.44
729.557	50.02
729.867	50.53
730.178	50.54
730.489	50.46
730.8	50.32
731.11	50.36
731.421	49.73
731.731	50.74
732.042	51.43
732.352	52.27
732.663	51.89
732.973	52.59
733.283	51.74
733.594	50.38
733.904	50.7
734.214	49.89
734.524	49.86
734.834	50
735.144	50.1
735.454	50.1
735.764	50.82
736.074	50.55
736.384	49.71
736.694	49.92
737.003	50.24
737.313	50.28
737.623	50.22
737.932	49.84
738.242	50.34
738.551	51.95
738.861	52.44
739.17	52.51
739.479	52.01
739.789	51.79
740.098	51.66
740.407	51.59
740.716	52.15
741.025	53.86
741.334	55.36
741.643	56.01
741.952	55.42
742.261	55.7
742.57	56.02
742.879	56.58
743.188	55.86
743.497	53.84
743.805	57.04
744.114	59.16
744.422	59.52
744.731	61.78
745.04	60.29
745.348	60
745.656	61.74
745.965	62.02
746.273	59.74
746.581	60.9
746.889	60.05
747.198	60.23
747.506	59.36
747.814	58.76
748.122	59.19
748.43	59.4
748.738	58.68
749.046	56.93
749.353	58.16
749.661	59.18
749.969	57.29
750.277	52.68
750.584	51.36
750.892	51.11
751.199	52.31
751.507	46.25
751.814	45.89
752.122	44.59
752.429	43.53
752.736	45.8
753.044	47.64
753.351	48.46
753.658	48.42
753.965	48.93
754.272	48.3
754.579	46.89
754.886	45.59
755.193	45.32
755.5	46.31
755.807	45.05
756.114	44.12
756.42	45.51
756.727	45.32
757.034	44.45
757.34	42.51
757.647	44.24
757.953	48.07
758.26	51.56
758.566	50.74
758.872	50.97
759.179	56.25
759.485	53.45
759.791	54.24
760.097	54.27
760.403	55.83
760.709	51.85
761.015	50.5
761.321	49.81
761.627	48.47
761.933	48.4
762.239	50.19
762.545	49.38
762.851	47.52
763.156	45.31
763.462	49.07
763.767	49.92
764.073	50.02
764.378	51.28
764.684	49.82
764.989	52.37
765.295	51.14
765.6	47.48
765.905	44.75
766.21	47.64
766.515	45.8
766.821	44.01
767.126	45.99
767.431	46.97
767.736	46.35
768.041	40.14
768.345	40.88
768.65	39.04
768.955	36.5
769.26	36.85
769.564	34.37
769.869	32.2
770.174	36.83
770.478	39.76
770.783	37.58
771.087	35.02
771.391	28.32
771.696	23.74
772	25.59
772.304	28.19
772.608	33.5
772.913	40.84
773.217	46.18
773.521	41.67
773.825	43.79
774.129	47.79
774.433	51.21
774.736	48.47
775.04	48.49
775.344	43.54
775.648	41.77
775.951	47.09
776.255	49.77
776.559	49.87
776.862	56.71
777.166	61.98
777.469	64.66
777.772	70.48
778.076	72.32
778.379	79.3
778.682	77.87
778.985	78.51
779.289	80.16
779.592	73.52
779.895	74.1
780.198	74.15
780.501	64.35
780.804	64.27
781.106	67.77
781.409	62.11
781.712	58.64
782.015	51.98
782.317	59.18
782.62	53.14
782.923	58.88
783.225	61.37
783.527	57.55
783.83	52.66
784.132	54.7
784.435	51.2
784.737	45.18
785.039	49.79
785.341	46.32
785.643	39.04
785.945	35
786.248	29.99
786.55	37.62
786.851	34.66
787.153	25.98
787.455	23.9
787.757	28.11
788.059	33.22
788.36	27.85
788.662	38.66
788.964	46.68
789.265	48.94
789.567	50.36
789.868	44.32
790.17	39.04
790.471	44.25
790.772	44.37
791.074	48.88
791.375	49.27
791.676	51.64
791.977	47.39
792.278	48.52
792.579	45.28
792.88	50.64
793.181	53.11
793.482	43
793.783	48.42
794.083	39.32
794.384	57.23
794.685	71.23
794.986	65.72
795.286	61.05
795.587	53.26
795.887	57.27
796.188	40.11
796.488	32.87
796.788	16.62
797.089	10.05
797.389	4.81
797.689	27.8
797.989	10.29
798.289	14.27
798.589	28.32
798.889	37.31
799.189	4.87
799.489	-31.3
799.789	-1.3
800.089	-17.64
800.389	-5.75
800.688	16.53
800.988	37.01
801.288	31.9
801.587	21.79
801.887	7.02
802.186	-10.92
802.486	-28.52
802.785	-88.9
803.085	-17.29
803.384	-3.49
803.683	19.99
803.982	23.59
804.281	34.73
804.58	33.96
804.879	25.83
805.178	36.66
805.477	53.35
805.776	67.76
806.075	42.11
806.374	67.29
806.673	102.65
806.971	89.87
807.27	107.25
807.569	156.52
807.867	216.16
808.166	196.45
808.464	139.17
808.763	163.14
809.061	271.48
809.359	343.57
809.658	306.87
809.956	316.27
810.254	661.39
810.552	-1140.49
810.85	-388.35
811.148	-160.04
811.446	-77.91
811.744	-89.01
812.042	-97.43
812.34	-113.01
812.638	-125
812.935	-141.51
813.233	-71.37
813.531	-74.7
813.828	-49.01
814.126	-28.31
814.423	-35.92
814.721	-33.26
815.018	1.71
815.316	12.79
815.613	17.76
815.91	7.34
816.207	6.89
816.504	-12.74
816.802	-7.59
817.099	6.04
817.396	76.63
817.693	169.99
817.99	179.43
818.286	221.86
818.583	262.89
818.88	875
819.177	-1519.59
819.473	-568.82
819.77	-837.35
820.067	-720.58
820.363	-373.16
820.66	-227.65
820.956	-220.2
821.252	-110.69
821.549	-47.18
821.845	-56.75
822.141	-33.25
822.437	-14.16
822.734	-13.28
823.03	-6.12
823.326	-9.61
823.622	-10.86
823.918	-30.97
824.213	-5.13
824.509	7.48
824.805	26.91
825.101	34.29
825.397	17.64
825.692	-3.41
825.988	7.84
826.283	1.39
826.579	-7.86
826.874	-5.58
827.17	7.14
827.465	-15.67
827.76	-16.58
828.056	-29.69
828.351	-33.65
828.646	-103.91
828.941	-613
829.236	727.34
829.531	450.36
829.826	199.11
830.121	286.5
830.416	240.63
830.711	198.27
831.006	218.11
831.3	222.23
831.595	212.47
831.89	294.48
832.184	213.05
832.479	250.39
832.773	167.83
833.068	59.32
833.362	37.28
833.656	38.54
833.951	63.83
834.245	50.59
834.539	34.37
834.833	35.04
835.127	60.83
835.421	56.22
835.715	42.19
836.009	54.23
836.303	55.19
836.597	11.77
836.891	248.47
837.185	33.89
837.478	112.82
837.772	68.78
838.066	33.36
838.359	16.05
838.653	-88.91
838.946	-61.17
839.24	-275.94
839.533	-24.47
839.826	675
840.119	715
840.413	-711.21
840.706	-523.63
840.999	-128.34
841.292	-200.16
841.585	-153.88
841.878	-301.53
842.171	-101.47
842.464	-75.23
842.757	3.25
843.049	77.12
843.342	-267.37
843.635	36.01
843.927	24.09
844.22	13.83
844.513	23.35
844.805	72.57
845.098	43.29
845.39	52.83
845.682	50.51
845.975	34.17
846.267	21.78
846.559	-1.85
846.851	9.43
847.143	-4.32
847.435	25.46
847.727	43.89
848.019	0.56
848.311	-39.29
848.603	-62.02
848.895	-81.59
849.186	-204.84
849.478	-148.3
849.77	-162.17
850.061	-21.4
850.353	-89.37
850.645	160.15
850.936	94.8
851.227	999
851.519	115.09
851.81	103.97
852.101	106.78
852.393	91.75
852.684	138.3
852.975	175.61
853.266	90.45
853.557	51.79
853.848	62.4
854.139	94.58
854.43	129.57
854.72	150.96
855.011	146.55
855.302	141.55
855.593	171.56
855.883	295.06
856.174	230.64
856.464	217.49
856.755	221.71
857.045	262.4
857.336	272.31
857.626	203.97
857.916	175.18
858.206	226.13
858.497	204.69
858.787	243.77
859.077	606.4
859.367	4370.24
859.657	693.25
859.947	395.19
860.237	234.58
860.527	266.76
860.816	240.03
861.106	228.58
861.396	263.15
861.685	256.09
861.975	250.88
862.265	288.25
862.554	413.46
862.844	273.36
863.133	219.1
863.422	575.99
863.712	1121.94
864.001	-695.67
864.29	-650
864.579	-254.38
864.868	-123.69
865.157	-114.41
865.446	-205.36
865.735	-327.48
866.024	-296.58
866.313	-254.41
866.602	-217.65
866.891	-59.5
867.179	-40.16
867.468	-57.57
