Data from T2__Reflection__32__23-40-05-926.txt Node

Date: Tue Jun 01 23:40:05 CEST 2021
User: mabdelazizm
Spectrometer: FLMS18565
Trigger mode: 0
Integration Time (sec): 2.000000E0
Scans to average: 1
Electric dark correction enabled: true
Nonlinearity correction enabled: false
Boxcar width: 12
XAxis mode: Wavelengths
Number of Pixels in Spectrum: 2048
>>>>>Begin Spectral Data<<<<<
179.071	26.53
179.452	4.66
179.833	4.96
180.214	-7.8
180.595	1.03
180.977	-17.61
181.358	-36.76
181.739	-27.05
182.12	-43.46
182.501	-33.11
182.882	-28.93
183.262	-47.88
183.643	-371.02
184.024	329.2
184.405	105.43
184.786	59.07
185.166	45.71
185.547	33.3
185.927	38.11
186.308	37.18
186.689	36.92
187.069	36.47
187.449	26.97
187.83	22.92
188.21	22.02
188.59	22.81
188.971	19.32
189.351	17.66
189.731	16.4
190.111	16.89
190.491	18.3
190.871	17.98
191.251	15.51
191.631	14.17
192.011	13.67
192.391	12.87
192.771	12.31
193.151	9.88
193.531	8.75
193.91	10.11
194.29	9.95
194.67	9
195.049	9.25
195.429	7.32
195.808	8.57
196.188	8.37
196.567	8.21
196.946	8.81
197.326	8.47
197.705	9.25
198.084	8.21
198.464	7.65
198.843	8.72
199.222	7.78
199.601	7.17
199.98	5.07
200.359	3.56
200.738	4.42
201.117	5.13
201.496	4.89
201.875	5.45
202.254	5.41
202.632	5.47
203.011	5.93
203.39	5.06
203.768	3.94
204.147	5.08
204.525	4.48
204.904	4.75
205.282	3.74
205.661	2.97
206.039	3.1
206.418	3.62
206.796	3.76
207.174	2.94
207.552	3.28
207.931	2.77
208.309	1.92
208.687	2.58
209.065	3
209.443	3.52
209.821	3.8
210.199	3.11
210.577	1.67
210.954	1.76
211.332	1.24
211.71	1.48
212.088	1.5
212.465	1.03
212.843	1.49
213.221	2.17
213.598	1.74
213.976	1.82
214.353	1.58
214.731	1.37
215.108	1.42
215.485	1.38
215.863	0.75
216.24	1.09
216.617	1.07
216.994	0.88
217.371	1.23
217.749	0.93
218.126	0.86
218.503	0.65
218.88	0.53
219.256	0.22
219.633	0.24
220.01	0.54
220.387	0.39
220.764	0.53
221.14	0.39
221.517	0.33
221.894	0.04
222.27	0.01
222.647	-0.02
223.023	-0.03
223.4	0.18
223.776	0.37
224.153	0.61
224.529	0.7
224.905	0.75
225.282	0.84
225.658	0.72
226.034	0.88
226.41	0.82
226.786	0.91
227.162	1.14
227.538	0.88
227.914	0.93
228.29	0.94
228.666	1.27
229.042	1.58
229.418	1.68
229.793	1.86
230.169	1.66
230.545	1.49
230.92	1.49
231.296	1.62
231.672	1.6
232.047	1.33
232.422	1.23
232.798	1.06
233.173	1.02
233.549	1.07
233.924	1.11
234.299	1.15
234.674	1.18
235.05	1.15
235.425	1.19
235.8	1.25
236.175	1.22
236.55	1.21
236.925	1.19
237.3	1.2
237.675	1.09
238.049	0.93
238.424	0.78
238.799	0.81
239.174	0.83
239.548	0.88
239.923	0.92
240.297	0.92
240.672	0.9
241.046	0.9
241.421	0.94
241.795	0.98
242.17	0.96
242.544	0.97
242.918	0.89
243.293	0.89
243.667	0.81
244.041	0.84
244.415	0.82
244.789	0.76
245.163	0.64
245.537	0.66
245.911	0.62
246.285	0.71
246.659	0.62
247.033	0.67
247.406	0.71
247.78	0.73
248.154	0.7
248.528	0.62
248.901	0.54
249.275	0.59
249.648	0.59
250.022	0.71
250.395	0.66
250.769	0.71
251.142	0.75
251.515	0.74
251.888	0.69
252.262	0.69
252.635	0.66
253.008	0.65
253.381	0.62
253.754	0.68
254.127	0.62
254.5	0.74
254.873	0.7
255.246	0.68
255.619	0.55
255.992	0.54
256.364	0.56
256.737	0.5
257.11	0.46
257.483	0.45
257.855	0.43
258.228	0.47
258.6	0.45
258.973	0.46
259.345	0.35
259.718	0.32
260.09	0.26
260.462	0.25
260.834	0.24
261.207	0.28
261.579	0.26
261.951	0.29
262.323	0.26
262.695	0.31
263.067	0.33
263.439	0.4
263.811	0.34
264.183	0.31
264.555	0.36
264.927	0.51
265.298	0.54
265.67	0.54
266.042	0.61
266.413	0.61
266.785	0.6
267.156	0.61
267.528	0.62
267.899	0.58
268.271	0.51
268.642	0.52
269.013	0.58
269.385	0.62
269.756	0.59
270.127	0.55
270.498	0.52
270.87	0.55
271.241	0.55
271.612	0.61
271.983	0.49
272.354	0.44
272.724	0.47
273.095	0.47
273.466	0.46
273.837	0.36
274.208	0.3
274.578	0.32
274.949	0.34
275.32	0.27
275.69	0.32
276.061	0.36
276.431	0.36
276.802	0.38
277.172	0.33
277.542	0.4
277.913	0.42
278.283	0.37
278.653	0.36
279.023	0.37
279.394	0.4
279.764	0.36
280.134	0.39
280.504	0.3
280.874	0.27
281.244	0.31
281.614	0.21
281.983	0.19
282.353	0.18
282.723	0.22
283.093	0.34
283.462	0.36
283.832	0.35
284.202	0.3
284.571	0.36
284.941	0.35
285.31	0.29
285.68	0.25
286.049	0.23
286.418	0.27
286.788	0.28
287.157	0.29
287.526	0.3
287.895	0.31
288.264	0.33
288.633	0.36
289.002	0.37
289.371	0.33
289.74	0.43
290.109	0.46
290.478	0.43
290.847	0.51
291.216	0.46
291.585	0.44
291.953	0.38
292.322	0.31
292.691	0.23
293.059	0.28
293.428	0.37
293.796	0.38
294.165	0.35
294.533	0.37
294.901	0.38
295.27	0.37
295.638	0.41
296.006	0.35
296.374	0.31
296.743	0.25
297.111	0.19
297.479	0.11
297.847	0.02
298.215	0.13
298.583	0.09
298.95	0.12
299.318	0.11
299.686	0.08
300.054	0.11
300.422	0.1
300.789	0.14
301.157	0.22
301.525	0.19
301.892	0.27
302.26	0.17
302.627	0.09
302.994	0.02
303.362	0.02
303.729	-0.01
304.097	-0.04
304.464	-0.02
304.831	-0.01
305.198	-0.03
305.565	-0.01
305.932	0
306.299	-0.02
306.666	0.05
307.033	0.11
307.4	0.02
307.767	0.03
308.134	-0.03
308.501	-0
308.867	0.06
309.234	0.04
309.601	0.04
309.967	0.02
310.334	-0.03
310.701	0.03
311.067	-0.04
311.433	-0
311.8	-0.03
312.166	-0.02
312.533	-0.01
312.899	0.05
313.265	0.14
313.631	0.14
313.997	0.11
314.363	0.1
314.729	0.11
315.096	0.08
315.461	0.06
315.827	0.1
316.193	0.11
316.559	0.13
316.925	0.13
317.291	0.16
317.656	0.09
318.022	0.05
318.388	0.03
318.753	0.02
319.119	0.03
319.484	0.04
319.85	-0.03
320.215	-0.02
320.581	-0
320.946	0.03
321.311	0.01
321.676	-0.05
322.042	-0.12
322.407	-0.13
322.772	-0.15
323.137	-0.22
323.502	-0.2
323.867	-0.23
324.232	-0.17
324.597	-0.1
324.962	-0.14
325.327	-0.11
325.691	-0.08
326.056	-0.04
326.421	-0.12
326.785	-0.16
327.15	-0.15
327.514	-0.14
327.879	-0.16
328.243	-0.22
328.608	-0.25
328.972	-0.26
329.337	-0.27
329.701	-0.4
330.065	-0.41
330.429	-0.39
330.794	-0.35
331.158	-0.31
331.522	-0.38
331.886	-0.33
332.25	-0.31
332.614	-0.33
332.978	-0.32
333.342	-0.33
333.705	-0.27
334.069	-0.27
334.433	-0.3
334.797	-0.32
335.16	-0.42
335.524	-0.44
335.887	-0.43
336.251	-0.41
336.614	-0.37
336.978	-0.27
337.341	-0.33
337.705	-0.37
338.068	-0.31
338.431	-0.25
338.794	-0.12
339.158	-0.17
339.521	-0.12
339.884	-0.09
340.247	-0.11
340.61	-0.07
340.973	-0.1
341.336	-0.07
341.699	-0.03
342.062	-0.05
342.424	-0.07
342.787	-0.14
343.15	-0.13
343.512	-0.07
343.875	-0.09
344.238	-0.06
344.6	0.04
344.963	0.1
345.325	0.08
345.688	-0.02
346.05	-0.11
346.412	0.01
346.775	0.08
347.137	0.1
347.499	0.07
347.861	-0.02
348.223	0.01
348.585	-0.02
348.947	-0.1
349.309	-0.07
349.671	-0.02
350.033	0.02
350.395	-0.02
350.757	-0.08
351.118	-0.01
351.48	0
351.842	-0.05
352.203	-0.05
352.565	-0.15
352.927	-0.19
353.288	-0.18
353.65	-0.31
354.011	-0.33
354.372	-0.34
354.734	-0.37
355.095	-0.41
355.456	-0.4
355.817	-0.49
356.179	-0.42
356.54	-0.46
356.901	-0.42
357.262	-0.34
357.623	-0.38
357.984	-0.32
358.345	-0.3
358.705	-0.35
359.066	-0.41
359.427	-0.36
359.788	-0.32
360.148	-0.34
360.509	-0.35
360.87	-0.34
361.23	-0.46
361.591	-0.44
361.951	-0.34
362.312	-0.4
362.672	-0.27
363.032	-0.26
363.393	-0.21
363.753	-0.13
364.113	-0.07
364.473	-0.11
364.833	-0.04
365.193	-0.12
365.553	-0.06
365.913	-0.03
366.273	-0.07
366.633	-0.05
366.993	-0.08
367.353	-0.1
367.713	-0.16
368.072	-0.18
368.432	-0.2
368.792	-0.17
369.151	-0.16
369.511	-0.19
369.87	-0.13
370.23	-0.08
370.589	-0.04
370.949	-0.05
371.308	0.01
371.667	-0.11
372.027	-0.16
372.386	-0.23
372.745	-0.28
373.104	-0.29
373.463	-0.26
373.822	-0.21
374.181	-0.27
374.54	-0.28
374.899	-0.28
375.258	-0.25
375.617	-0.27
375.975	-0.25
376.334	-0.22
376.693	-0.22
377.052	-0.24
377.41	-0.2
377.769	-0.18
378.127	-0.24
378.486	-0.19
378.844	-0.23
379.202	-0.16
379.561	-0.21
379.919	-0.26
380.277	-0.24
380.636	-0.13
380.994	-0.03
381.352	-0.05
381.71	0.05
382.068	0.04
382.426	-0.01
382.784	0.02
383.142	0.04
383.5	0
383.857	0.02
384.215	-0
384.573	0.03
384.931	0.02
385.288	-0.05
385.646	-0.02
386.003	0.01
386.361	-0.12
386.718	-0.16
387.076	-0.09
387.433	-0.09
387.791	-0.08
388.148	-0.11
388.505	-0.17
388.862	-0.2
389.22	-0.24
389.577	-0.34
389.934	-0.38
390.291	-0.39
390.648	-0.45
391.005	-0.39
391.362	-0.32
391.718	-0.4
392.075	-0.46
392.432	-0.38
392.789	-0.36
393.145	-0.35
393.502	-0.35
393.859	-0.45
394.215	-0.47
394.572	-0.37
394.928	-0.4
395.285	-0.34
395.641	-0.33
395.997	-0.33
396.354	-0.4
396.71	-0.38
397.066	-0.4
397.422	-0.37
397.778	-0.31
398.134	-0.25
398.491	-0.14
398.846	-0.14
399.202	-0.07
399.558	-0.06
399.914	-0.05
400.27	-0.07
400.626	-0.12
400.981	-0.09
401.337	-0.17
401.693	-0.26
402.048	-0.3
402.404	-0.37
402.759	-0.23
403.115	-0.16
403.47	-0.26
403.826	-0.18
404.181	-0.13
404.536	-0.12
404.892	-0.19
405.247	-0.12
405.602	-0.07
405.957	-0.04
406.312	0.03
406.667	0.01
407.022	0.05
407.377	0.07
407.732	0.07
408.087	0.11
408.442	0.09
408.796	0.02
409.151	-0.13
409.506	-0.01
409.86	0.09
410.215	0.17
410.57	0.14
410.924	0.22
411.279	0.26
411.633	0.27
411.987	0.32
412.342	0.34
412.696	0.37
413.05	0.44
413.404	0.46
413.758	0.49
414.113	0.49
414.467	0.45
414.821	0.39
415.175	0.49
415.529	0.51
415.882	0.47
416.236	0.41
416.59	0.46
416.944	0.36
417.298	0.42
417.651	0.45
418.005	0.58
418.358	0.59
418.712	0.62
419.065	0.59
419.419	0.71
419.772	0.69
420.126	0.73
420.479	0.7
420.832	0.73
421.185	0.89
421.539	0.86
421.892	0.82
422.245	0.76
422.598	0.74
422.951	0.74
423.304	0.71
423.657	0.74
424.01	0.7
424.363	0.73
424.715	0.76
425.068	0.81
425.421	0.83
425.773	0.91
426.126	1.04
426.479	1.18
426.831	1.28
427.184	1.3
427.536	1.34
427.889	1.39
428.241	1.42
428.593	1.5
428.945	1.53
429.298	1.69
429.65	1.65
430.002	1.65
430.354	1.76
430.706	1.81
431.058	1.99
431.41	2.05
431.762	2.05
432.114	2.11
432.466	2.14
432.817	2.11
433.169	2.18
433.521	2.16
433.872	2.19
434.224	2.21
434.576	2.26
434.927	2.14
435.279	2.11
435.63	2.14
435.981	2.15
436.333	2.13
436.684	2.05
437.035	1.92
437.387	1.91
437.738	1.99
438.089	2.05
438.44	2.04
438.791	2.03
439.142	1.97
439.493	1.96
439.844	1.89
440.195	1.92
440.545	2.16
440.896	2.15
441.247	2.06
441.598	2.23
441.948	2.13
442.299	2.09
442.649	2.06
443	2.14
443.35	2.14
443.701	2.16
444.051	2.12
444.401	2.05
444.752	1.99
445.102	1.91
445.452	2.05
445.802	2.12
446.152	2.21
446.502	2.24
446.852	2.05
447.202	2.16
447.552	2.13
447.902	2.16
448.252	2.09
448.602	3.43
448.952	3.54
449.301	3.56
449.651	3.71
450.001	3.91
450.35	3.86
450.7	3.98
451.049	4.14
451.399	4.19
451.748	4.15
452.097	4.15
452.447	4.13
452.796	4.21
453.145	4.36
453.494	4.5
453.843	4.63
454.193	4.67
454.542	4.73
454.891	4.64
455.239	4.58
455.588	4.72
455.937	4.71
456.286	4.79
456.635	4.78
456.984	5.02
457.332	3.68
457.681	3.71
458.03	3.6
458.378	3.59
458.727	3.7
459.075	3.79
459.423	3.91
459.772	3.87
460.12	3.84
460.468	3.92
460.817	3.98
461.165	4.18
461.513	4.19
461.861	4.17
462.209	4.22
462.557	4.22
462.905	4.24
463.253	4.25
463.601	4.37
463.949	4.32
464.297	4.3
464.644	4.35
464.992	4.35
465.34	4.45
465.687	4.33
466.035	4.26
466.383	4.21
466.73	4.13
467.078	4.08
467.425	3.99
467.772	3.82
468.12	3.66
468.467	3.69
468.814	3.7
469.161	3.61
469.508	3.58
469.856	3.47
470.203	3.31
470.55	3.28
470.897	3.19
471.243	3.09
471.59	3.07
471.937	3.12
472.284	2.98
472.631	2.95
472.977	2.93
473.324	2.82
473.671	2.63
474.017	2.51
474.364	2.47
474.71	2.41
475.057	2.36
475.403	2.4
475.749	2.37
476.096	2.32
476.442	2.28
476.788	2.29
477.134	2.32
477.48	2.33
477.826	2.32
478.172	2.36
478.518	2.34
478.864	2.46
479.21	2.37
479.556	2.39
479.902	2.48
480.248	2.5
480.593	2.46
480.939	2.55
481.285	2.71
481.63	2.79
481.976	2.83
482.321	2.97
482.667	3.19
483.012	3.34
483.357	3.48
483.703	3.64
484.048	3.79
484.393	3.95
484.738	4.16
485.084	4.43
485.429	4.67
485.774	4.97
486.119	5.34
486.464	5.66
486.808	5.86
487.153	6.23
487.498	6.47
487.843	6.87
488.188	7.33
488.532	7.73
488.877	8.22
489.222	8.79
489.566	9.3
489.911	9.88
490.255	10.44
490.6	11.03
490.944	11.68
491.288	12.31
491.633	12.95
491.977	13.56
492.321	14.29
492.665	14.99
493.009	15.8
493.353	16.56
493.697	17.37
494.041	18.12
494.385	18.89
494.729	19.61
495.073	20.31
495.417	21.17
495.76	22.04
496.104	23.05
496.448	23.93
496.791	24.82
497.135	25.74
497.479	26.65
497.822	27.56
498.165	28.5
498.509	29.37
498.852	30.36
499.196	31.36
499.539	32.27
499.882	33.15
500.225	34.03
500.568	34.91
500.911	35.73
501.254	36.5
501.597	37.33
501.94	38.11
502.283	38.84
502.626	39.56
502.969	40.23
503.312	40.92
503.654	41.72
503.997	42.42
504.34	43.03
504.682	43.74
505.025	44.46
505.367	45.09
505.71	45.78
506.052	46.4
506.395	46.91
506.737	47.43
507.079	47.84
507.421	48.36
507.764	49.01
508.106	49.47
508.448	49.96
508.79	50.44
509.132	50.89
509.474	51.32
509.816	51.73
510.158	52.1
510.499	52.67
510.841	53.06
511.183	53.57
511.525	54.05
511.866	54.5
512.208	54.92
512.549	55.39
512.891	55.89
513.232	56.13
513.574	56.57
513.915	56.92
514.256	57.22
514.598	57.51
514.939	58.02
515.28	58.45
515.621	58.98
515.962	59.32
516.303	59.62
516.644	60.12
516.985	60.39
517.326	60.61
517.667	61.03
518.008	61.29
518.349	61.75
518.69	62.02
519.03	62.04
519.371	62.28
519.712	62.43
520.052	62.55
520.393	62.76
520.733	62.91
521.074	63.2
521.414	63.48
521.754	63.73
522.095	63.81
522.435	64
522.775	64.31
523.115	64.43
523.455	64.49
523.795	64.6
524.135	64.58
524.475	64.76
524.815	64.73
525.155	64.8
525.495	64.96
525.835	65.19
526.175	65.25
526.514	65.43
526.854	65.5
527.194	65.55
527.533	65.53
527.873	65.53
528.212	65.66
528.552	65.93
528.891	66.05
529.23	66.19
529.57	66.21
529.909	66.21
530.248	66.28
530.587	66.47
530.927	66.72
531.266	66.9
531.605	67.12
531.944	67.18
532.283	67.21
532.621	67.36
532.96	67.39
533.299	67.71
533.638	67.62
533.977	67.57
534.315	67.61
534.654	67.6
534.992	67.58
535.331	67.68
535.67	67.86
536.008	68.03
536.346	68.31
536.685	68.35
537.023	68.41
537.361	68.57
537.7	68.76
538.038	68.88
538.376	68.98
538.714	69.07
539.052	68.84
539.39	68.75
539.728	68.52
540.066	68.58
540.404	68.66
540.741	68.76
541.079	69.12
541.417	69.02
541.755	68.9
542.092	69.01
542.43	68.87
542.767	68.86
543.105	68.83
543.442	68.77
543.78	68.89
544.117	68.89
544.454	69.1
544.792	69.05
545.129	69.09
545.466	68.96
545.803	68.89
546.14	68.75
546.477	68.75
546.814	68.86
547.151	68.8
547.488	68.9
547.825	68.88
548.162	69.03
548.499	68.96
548.835	68.9
549.172	68.72
549.509	68.6
549.845	68.78
550.182	68.8
550.518	68.95
550.855	69.36
551.191	69.41
551.528	69.47
551.864	69.79
552.2	69.59
552.537	69.65
552.873	69.59
553.209	69.78
553.545	69.67
553.881	69.8
554.217	69.77
554.553	69.73
554.889	69.73
555.225	69.6
555.561	69.63
555.896	69.81
556.232	69.85
556.568	69.87
556.903	70.02
557.239	70.11
557.575	70.57
557.91	70.63
558.245	70.65
558.581	70.79
558.916	70.83
559.252	70.84
559.587	70.9
559.922	70.94
560.257	70.81
560.592	70.84
560.928	71.01
561.263	71.01
561.598	70.89
561.933	70.94
562.267	71.04
562.602	71.1
562.937	71.43
563.272	71.46
563.607	71.31
563.941	71.62
564.276	71.64
564.611	71.68
564.945	71.69
565.28	71.55
565.614	71.5
565.949	71.29
566.283	71.29
566.617	71.34
566.951	71.31
567.286	71.33
567.62	71.09
567.954	71.03
568.288	71.19
568.622	71.24
568.956	71.33
569.29	71.35
569.624	71.39
569.958	71.57
570.292	71.7
570.626	71.61
570.959	71.55
571.293	71.53
571.627	71.37
571.96	71.65
572.294	71.56
572.627	71.64
572.961	71.8
573.294	71.81
573.627	71.88
573.961	72.03
574.294	72.05
574.627	72.05
574.961	72.15
575.294	72.09
575.627	72.05
575.96	72.03
576.293	72.27
576.626	72.34
576.959	72.29
577.292	72.29
577.624	72.33
577.957	72.38
578.29	72.26
578.623	72.29
578.955	72.4
579.288	72.64
579.62	72.52
579.953	72.66
580.285	72.63
580.618	72.69
580.95	72.69
581.282	72.57
581.615	72.61
581.947	72.62
582.279	72.59
582.611	72.75
582.943	72.84
583.275	72.81
583.607	72.98
583.939	73.07
584.271	73.31
584.603	73.09
584.935	72.83
585.267	72.86
585.598	72.8
585.93	72.65
586.262	72.59
586.593	72.57
586.925	72.46
587.256	72.37
587.588	72.21
587.919	72.29
588.25	72.36
588.582	72.32
588.913	72.35
589.244	72.14
589.575	72.11
589.907	72.12
590.238	72.05
590.569	72.01
590.9	71.88
591.231	71.77
591.562	71.56
591.892	71.51
592.223	71.57
592.554	71.64
592.885	71.77
593.215	71.97
593.546	72.16
593.877	72.04
594.207	72.28
594.538	72.59
594.868	72.65
595.198	72.61
595.529	72.77
595.859	72.85
596.189	73.03
596.52	73.16
596.85	73.12
597.18	73.1
597.51	73.21
597.84	73.31
598.17	73.33
598.5	73.51
598.83	73.57
599.16	73.71
599.489	73.69
599.819	73.85
600.149	73.85
600.479	73.6
600.808	73.46
601.138	73.47
601.467	73.45
601.797	73.39
602.126	73.6
602.456	73.37
602.785	73.14
603.114	73
603.443	73.17
603.773	73.12
604.102	73.01
604.431	72.93
604.76	72.71
605.089	72.6
605.418	72.6
605.747	72.67
606.076	72.72
606.405	72.7
606.733	72.82
607.062	72.79
607.391	72.66
607.72	72.73
608.048	72.62
608.377	72.59
608.705	72.75
609.034	72.5
609.362	72.43
609.69	72.52
610.019	72.44
610.347	72.31
610.675	72.33
611.004	72.15
611.332	72.46
611.66	72.4
611.988	72.34
612.316	72.28
612.644	72.26
612.972	72.44
613.3	72.65
613.627	72.63
613.955	72.83
614.283	72.67
614.611	72.49
614.938	72.14
615.266	71.83
615.593	71.81
615.921	71.55
616.248	71.99
616.576	72.1
616.903	72.02
617.23	72.89
617.558	73.34
617.885	73.28
618.212	73.29
618.539	73.46
618.866	73.38
619.193	73.53
619.52	73.26
619.847	73.3
620.174	73.05
620.501	72.73
620.828	72.59
621.155	72.46
621.481	72.24
621.808	71.97
622.135	71.65
622.461	71.83
622.788	72.2
623.114	72.26
623.441	72.48
623.767	72.42
624.093	72.92
624.42	72.9
624.746	72.87
625.072	73.23
625.398	72.72
625.725	72.07
626.051	72.07
626.377	72.45
626.703	72.51
627.029	72.45
627.354	72.43
627.68	72.42
628.006	72.83
628.332	73.03
628.658	73.44
628.983	73.54
629.309	73.78
629.634	74.39
629.96	74.64
630.285	74.31
630.611	74.22
630.936	73.91
631.262	73.95
631.587	74.42
631.912	74.6
632.237	74.58
632.562	74.29
632.887	74.5
633.213	74.8
633.538	75.26
633.863	75.32
634.187	75.46
634.512	74.74
634.837	74.73
635.162	75.5
635.487	75.58
635.811	75.96
636.136	75.29
636.461	75.48
636.785	75.72
637.11	76.21
637.434	75.96
637.758	75.19
638.083	75.33
638.407	75.96
638.731	76.51
639.056	76.48
639.38	77.04
639.704	76.47
640.028	77.05
640.352	76.91
640.676	76.89
641	76.35
641.324	75.6
641.648	75.48
641.972	75.83
642.295	75.46
642.619	76
642.943	76.87
643.266	76.12
643.59	76.11
643.913	75.85
644.237	76.45
644.56	76.21
644.884	76.1
645.207	75.44
645.53	75.96
645.854	75.66
646.177	75.71
646.5	75.64
646.823	75.16
647.146	75.18
647.469	74.58
647.792	75.18
648.115	74.84
648.438	74.45
648.761	74.21
649.084	73.68
649.406	72.92
649.729	72
650.052	71.72
650.374	71.92
650.697	71.81
651.019	71.45
651.342	71.43
651.664	71.57
651.987	71.66
652.309	71.25
652.631	71.34
652.953	71.34
653.276	71.42
653.598	71.22
653.92	71.34
654.242	71.08
654.564	71.01
654.886	70.78
655.208	70.81
655.53	70.98
655.851	70.76
656.173	70.67
656.495	70.9
656.816	70.56
657.138	70.57
657.46	70.64
657.781	71.47
658.103	71.86
658.424	71.65
658.746	71.95
659.067	71.86
659.388	72.55
659.709	72.85
660.031	72.61
660.352	73.92
660.673	73.53
660.994	73.33
661.315	72.65
661.636	73.21
661.957	73.41
662.278	74.73
662.599	74.55
662.919	75.79
663.24	75.74
663.561	75.83
663.881	76.63
664.202	76.29
664.523	75.52
664.843	75.69
665.164	75.08
665.484	75.5
665.804	75.4
666.125	75.53
666.445	75.71
666.765	75.76
667.085	76.23
667.405	76.08
667.726	74.87
668.046	75.36
668.366	74.98
668.686	76.09
669.005	76.5
669.325	77.47
669.645	77.12
669.965	78.26
670.285	78.09
670.604	78.89
670.924	78.77
671.243	78.65
671.563	77.19
671.882	76.65
672.202	76.15
672.521	76.35
672.841	76.84
673.16	76.67
673.479	75.8
673.798	75.51
674.117	75.65
674.437	75.16
674.756	74.15
675.075	74.08
675.394	73.72
675.713	74.13
676.031	73.86
676.35	74.42
676.669	73.7
676.988	74.14
677.306	73.79
677.625	73.82
677.944	73.54
678.262	73.64
678.581	72.83
678.899	72.58
679.218	72.73
679.536	73.69
679.854	73.61
680.172	74.38
680.491	74.12
680.809	73.92
681.127	74.28
681.445	74.78
681.763	74.99
682.081	74.85
682.399	74.53
682.717	74.99
683.035	75.11
683.352	74.91
683.67	74.77
683.988	74.52
684.306	74.87
684.623	74.32
684.941	73.81
685.258	73.24
685.576	73.4
685.893	72.72
686.211	72.81
686.528	74.02
686.845	74.59
687.162	75.28
687.48	75.2
687.797	75.84
688.114	75.41
688.431	75.61
688.748	76.16
689.065	76.13
689.382	75.12
689.699	75.62
690.015	75.61
690.332	76.61
690.649	76.6
690.966	76.34
691.282	75.49
691.599	75.11
691.915	74.87
692.232	74.58
692.548	74.99
692.865	75.97
693.181	77.56
693.497	78.24
693.813	79.32
694.13	78.06
694.446	77.65
694.762	77.81
695.078	76.38
695.394	75.84
695.71	75.82
696.026	75.76
696.342	76.1
696.658	75.99
696.973	75.29
697.289	75.91
697.605	76.34
697.92	76.52
698.236	75.52
698.551	75.36
698.867	77.19
699.182	79.37
699.498	80.61
699.813	81.21
700.128	82.06
700.444	82.59
700.759	80.74
701.074	79.72
701.389	78.26
701.704	77.78
702.019	78.91
702.334	78.94
702.649	78.56
702.964	78.56
703.279	78.53
703.594	77.96
703.908	78.77
704.223	78.08
704.538	78.73
704.852	78.68
705.167	78.36
705.481	78.94
705.796	79.05
706.11	78.51
706.425	79.62
706.739	77.92
707.053	78.14
707.368	77.6
707.682	78.4
707.996	77.33
708.31	75.96
708.624	77.53
708.938	78.32
709.252	79.62
709.566	79.41
709.88	80.37
710.193	80.58
710.507	79.96
710.821	79.96
711.135	81.05
711.448	81
711.762	80.26
712.075	81.68
712.389	80.96
712.702	82.15
713.015	83.82
713.329	81.78
713.642	81.8
713.955	82.08
714.269	82.45
714.582	82.4
714.895	81.41
715.208	81.63
715.521	81.24
715.834	79.39
716.147	79.42
716.459	79.39
716.772	79.03
717.085	78.22
717.398	78.7
717.71	78.26
718.023	78.96
718.336	80.49
718.648	80.6
718.961	80.52
719.273	80.95
719.585	80.92
719.898	79.07
720.21	77.95
720.522	77.95
720.834	77.99
721.147	78.88
721.459	78.75
721.771	80.98
722.083	81.39
722.395	81.4
722.707	81.49
723.019	81.04
723.33	81.95
723.642	84.48
723.954	85.47
724.265	84.86
724.577	82.78
724.889	82.93
725.2	81.83
725.512	80.01
725.823	79.69
726.135	79.58
726.446	79.53
726.757	79.54
727.068	80.03
727.38	81.11
727.691	80.26
728.002	81.03
728.313	80.61
728.624	80.13
728.935	79.84
729.246	79.13
729.557	78.97
729.867	77.82
730.178	78.28
730.489	78.46
730.8	78.62
731.11	78.55
731.421	77.91
731.731	78.19
732.042	77.95
732.352	78.78
732.663	79.27
732.973	79.57
733.283	80.59
733.594	79.57
733.904	78.83
734.214	79.73
734.524	80.03
734.834	80.95
735.144	82.16
735.454	83.91
735.764	83.48
736.074	85.38
736.384	85.92
736.694	86.06
737.003	87.28
737.313	87.02
737.623	87.44
737.932	87.14
738.242	87.35
738.551	88.08
738.861	87.97
739.17	88.43
739.479	87.55
739.789	87.6
740.098	88.91
740.407	89.61
740.716	91.89
741.025	91.46
741.334	92.66
741.643	93.58
741.952	94.95
742.261	95.77
742.57	92.31
742.879	89.7
743.188	90.79
743.497	90.3
743.805	89.46
744.114	87.27
744.422	87.79
744.731	86.04
745.04	85.33
745.348	87.5
745.656	87.42
745.965	86.9
746.273	87.64
746.581	85.32
746.889	83.91
747.198	86.87
747.506	89.03
747.814	86.58
748.122	82.94
748.43	82.19
748.738	81.08
749.046	81.83
749.353	80.27
749.661	79.3
749.969	79.73
750.277	80.56
750.584	81.53
750.892	80.6
751.199	80.69
751.507	80.28
751.814	84.28
752.122	87.98
752.429	88.28
752.736	87.26
753.044	84.83
753.351	84.77
753.658	84.02
753.965	83.11
754.272	85.16
754.579	87.77
754.886	89.2
755.193	88.33
755.5	87.1
755.807	88.86
756.114	87.54
756.42	89.44
756.727	89.45
757.034	92.25
757.34	91.09
757.647	89.89
757.953	90.46
758.26	87.63
758.566	85.47
758.872	86
759.179	85.6
759.485	84.18
759.791	81.29
760.097	83.45
760.403	84.54
760.709	85.52
761.015	85.98
761.321	88.52
761.627	87.62
761.933	87.34
762.239	86.26
762.545	84.28
762.851	83.17
763.156	89.87
763.462	85.81
763.767	81.85
764.073	84.93
764.378	84.43
764.684	84.82
764.989	88.17
765.295	86.18
765.6	85.35
765.905	88.56
766.21	91.04
766.515	89.3
766.821	88.59
767.126	87.53
767.431	89.44
767.736	91.18
768.041	92.33
768.345	93.04
768.65	94.88
768.955	95.63
769.26	98.08
769.564	97.96
769.869	101.38
770.174	103.31
770.478	106.87
770.783	102.63
771.087	109.23
771.391	126.67
771.696	122.41
772	126.58
772.304	129.47
772.608	127.48
772.913	141.42
773.217	149.26
773.521	149.28
773.825	152.64
774.129	161.1
774.433	163.66
774.736	164.6
775.04	172.56
775.344	172.82
775.648	167.78
775.951	167.66
776.255	158.15
776.559	153.01
776.862	151.26
777.166	158.47
777.469	148.52
777.772	147.98
778.076	151.96
778.379	152.31
778.682	152.63
778.985	142.19
779.289	141.87
779.592	140.8
779.895	136.98
780.198	132.06
780.501	120.68
780.804	119.33
781.106	120.39
781.409	118.33
781.712	121.72
782.015	119.75
782.317	132.65
782.62	123.17
782.923	116.65
783.225	112.55
783.527	109.7
783.83	123.82
784.132	125.09
784.435	131.31
784.737	127.15
785.039	130.46
785.341	137.48
785.643	142.9
785.945	133
786.248	140.39
786.55	138.09
786.851	140.11
787.153	147.06
787.455	144.04
787.757	159.69
788.059	192.48
788.36	179.82
788.662	181.28
788.964	186.44
789.265	172.41
789.567	162.11
789.868	148.26
790.17	161.51
790.471	169
790.772	182.92
791.074	208.12
791.375	175.89
791.676	152.58
791.977	132.51
792.278	133.38
792.579	146.08
792.88	130.84
793.181	127.58
793.482	126.01
793.783	116.41
794.083	117.2
794.384	109.89
794.685	99.67
794.986	92.82
795.286	70.5
795.587	78.55
795.887	86.05
796.188	89
796.488	73.22
796.788	72.96
797.089	53.95
797.389	59.92
797.689	68.19
797.989	61.17
798.289	59.9
798.589	52.73
798.889	39.39
799.189	33.75
799.489	77.78
799.789	113.88
800.089	100.85
800.389	65.08
800.688	60.64
800.988	75.53
801.288	75.34
801.587	79.03
801.887	114.25
802.186	105.46
802.486	144.8
802.785	292.63
803.085	242.46
803.384	271.76
803.683	189.78
803.982	187.41
804.281	270.61
804.58	993.18
804.879	-600.97
805.178	1204.33
805.477	506.69
805.776	1131.34
806.075	300.74
806.374	347.7
806.673	414.86
806.971	567.82
807.27	378.91
807.569	396
807.867	1775
808.166	1243.07
808.464	399.82
808.763	376.62
809.061	331.97
809.359	331.78
809.658	426.04
809.956	335.19
810.254	336.38
810.552	269.86
810.85	276.84
811.148	314.07
811.446	258.03
811.744	230.28
812.042	240.01
812.34	228.38
812.638	217.96
812.935	176.54
813.233	164.94
813.531	202.06
813.828	185.24
814.126	181.53
814.423	182.3
814.721	194.24
815.018	167.43
815.316	155.98
815.613	135.72
815.91	182.89
816.207	275
816.504	237.78
816.802	213.46
817.099	286.87
817.396	217.4
817.693	165.31
817.99	169.58
818.286	153.47
818.583	131.1
818.88	212.24
819.177	216.96
819.473	171.59
819.77	163.13
820.067	221.38
820.363	307.87
820.66	338.88
820.956	322
821.252	314.96
821.549	228.86
821.845	238.43
822.141	215.23
822.437	234.37
822.734	232.99
823.03	244.04
823.326	210.34
823.622	157.7
823.918	214.55
824.213	223.81
824.509	190.88
824.805	238.93
825.101	255.43
825.397	264.53
825.692	364.11
825.988	331.4
826.283	233.69
826.579	194.53
826.874	227.1
827.17	244.61
827.465	229.94
827.76	218.63
828.056	226.66
828.351	226.14
828.646	206.82
828.941	215.49
829.236	196.05
829.531	204
829.826	199.14
830.121	162.03
830.416	213.98
830.711	239.01
831.006	289.48
831.3	222.86
831.595	200.87
831.89	183.1
832.184	165.2
832.479	165.24
832.773	188.43
833.068	148.3
833.362	176.74
833.656	202.98
833.951	346.43
834.245	360.84
834.539	558.77
834.833	417.61
835.127	-6230.88
835.421	-3721.55
835.715	-1145.22
836.009	-493.42
836.303	-274.58
836.597	-404.67
836.891	-1217.94
837.185	1237.11
837.478	-1040.7
837.772	1348.74
838.066	480.54
838.359	522.39
838.653	692.18
838.946	1533.25
839.24	622.94
839.533	2667.73
839.826	3963.57
840.119	-14969.44
840.413	9595
840.706	-6644.05
840.999	51308.33
841.292	789.57
841.585	665.05
841.878	276.78
842.171	242.3
842.464	187.67
842.757	191.69
843.049	158.35
843.342	187.59
843.635	214.13
843.927	326.7
844.22	592.59
844.513	2481.98
844.805	12217.86
845.098	2182.69
845.39	-237.23
845.682	-292.88
845.975	-489.52
846.267	18375
846.559	-825
846.851	257.86
847.143	248.65
847.435	152.26
847.727	206.16
848.019	207.74
848.311	-63.31
848.603	-29.12
848.895	-28.87
849.186	-49.79
849.478	-31.68
849.77	-15.23
850.061	2.63
850.353	-14.48
850.645	-37.38
850.936	-45.21
851.227	-31.33
851.519	-16.95
851.81	-3.66
852.101	-25.87
852.393	-11.22
852.684	-40.95
852.975	-38.55
853.266	-37.32
853.557	-31.17
853.848	-42.31
854.139	-35.54
854.43	-40.03
854.72	-24.55
855.011	-34.52
855.302	-30.26
855.593	-56.43
855.883	-97.23
856.174	-106.12
856.464	-80.83
856.755	-66.48
857.045	-87.27
857.336	-94.91
857.626	-78.04
857.916	-82.19
858.206	-52.5
858.497	-79.16
858.787	-142
859.077	-243.52
859.367	-1356.15
859.657	-1767.11
859.947	-643.79
860.237	-932.62
860.527	-682.14
860.816	-425
861.106	2975
861.396	7156.82
861.685	753.86
861.975	713.65
862.265	536.5
862.554	452.45
862.844	675.65
863.133	1124.45
863.422	1044.37
863.712	1039.35
864.001	777.73
864.29	1156.9
864.579	2834.18
864.868	3275
865.157	1854.1
865.446	992.14
865.735	1185.09
866.024	900.38
866.313	926.97
866.602	-2977.78
866.891	-2834.68
867.179	3128.85
867.468	1749.42
