Data from T2__Reflection__36__00-25-31-807.txt Node

Date: Sat Jun 05 00:25:31 CEST 2021
User: mabdelazizm
Spectrometer: FLMS18565
Trigger mode: 0
Integration Time (sec): 2.000000E0
Scans to average: 1
Electric dark correction enabled: true
Nonlinearity correction enabled: false
Boxcar width: 12
XAxis mode: Wavelengths
Number of Pixels in Spectrum: 2048
>>>>>Begin Spectral Data<<<<<
179.071	43.35
179.452	36.13
179.833	54.31
180.214	69.62
180.595	118.15
180.977	714.71
181.358	80.09
181.739	221.43
182.12	112.19
182.501	123.43
182.882	132.45
183.262	239.47
183.643	-421.23
184.024	-7.04
184.405	52.38
184.786	50.39
185.166	55.29
185.547	29.55
185.927	28.59
186.308	18
186.689	29.51
187.069	34.38
187.449	31.46
187.83	20.77
188.21	9.21
188.59	9.23
188.971	7.42
189.351	7.33
189.731	4.5
190.111	-6.23
190.491	-4.44
190.871	-12.02
191.251	-2.55
191.631	-1.42
192.011	-7.33
192.391	-8.25
192.771	-3.98
193.151	-5.21
193.531	-9.91
193.91	-10.48
194.29	-9.65
194.67	-12.63
195.049	-10.78
195.429	-9.29
195.808	-13.1
196.188	-16.27
196.567	-19.68
196.946	-19.69
197.326	-17.11
197.705	-17.3
198.084	-15.97
198.464	-16.54
198.843	-15.69
199.222	-12.23
199.601	-6.04
199.98	-2.7
200.359	-2.06
200.738	-1.46
201.117	-3.43
201.496	-3.06
201.875	-5.66
202.254	-7.06
202.632	-7.2
203.011	-6.82
203.39	-7.68
203.768	-6.39
204.147	-3.59
204.525	-5.96
204.904	-6.69
205.282	-4.66
205.661	-2.65
206.039	0.48
206.418	-0.11
206.796	0.06
207.174	-0.23
207.552	-2.7
207.931	-3.01
208.309	-2.2
208.687	-4.46
209.065	-6.03
209.443	-10.92
209.821	-11.05
210.199	-12.62
210.577	-11.67
210.954	-7.9
211.332	-6.16
211.71	-7.11
212.088	-6.71
212.465	-8.71
212.843	-7.94
213.221	-7.64
213.598	-9.98
213.976	-8.3
214.353	-9.55
214.731	-8.73
215.108	-10.19
215.485	-11.51
215.863	-13.29
216.24	-13.63
216.617	-12.03
216.994	-10.33
217.371	-9.28
217.749	-9.17
218.126	-8.38
218.503	-7.93
218.88	-6.69
219.256	-5.72
219.633	-5.13
220.01	-5.82
220.387	-5.33
220.764	-5.48
221.14	-5.13
221.517	-4.01
221.894	-3.17
222.27	-3.68
222.647	-4.11
223.023	-3.4
223.4	-3.39
223.776	-3.05
224.153	-3.46
224.529	-2.79
224.905	-2.04
225.282	-1.32
225.658	-1.44
226.034	-1.87
226.41	-1.66
226.786	-2.03
227.162	-2.53
227.538	-2.23
227.914	-2.35
228.29	-1.92
228.666	-2.26
229.042	-2.26
229.418	-1.95
229.793	-1.79
230.169	-1.61
230.545	-1.23
230.92	-1.55
231.296	-1.56
231.672	-1.24
232.047	-1.03
232.422	-1
232.798	-0.89
233.173	-0.93
233.549	-0.67
233.924	-0.82
234.299	-1.01
234.674	-1.03
235.05	-0.69
235.425	-0.49
235.8	-0.72
236.175	-0.58
236.55	-0.44
236.925	-0.37
237.3	-0.21
237.675	-0.21
238.049	-0.04
238.424	0.06
238.799	0.08
239.174	0.1
239.548	0.14
239.923	0.04
240.297	0.01
240.672	0.11
241.046	0.01
241.421	-0
241.795	-0.02
242.17	-0.06
242.544	-0.01
242.918	-0.11
243.293	-0.06
243.667	0.02
244.041	0.08
244.415	0.07
244.789	-0.02
245.163	0.07
245.537	0.04
245.911	0.04
246.285	-0.03
246.659	-0.07
247.033	-0.06
247.406	-0.09
247.78	-0.12
248.154	-0.09
248.528	-0.15
248.901	-0.11
249.275	-0.07
249.648	-0.03
250.022	-0.09
250.395	-0.06
250.769	-0.06
251.142	-0
251.515	0.03
251.888	0.05
252.262	0.07
252.635	0.02
253.008	-0.07
253.381	-0.09
253.754	-0.17
254.127	-0.14
254.5	-0.14
254.873	-0.17
255.246	-0.17
255.619	-0.13
255.992	-0.12
256.364	-0.12
256.737	-0.12
257.11	-0.07
257.483	-0.08
257.855	-0.09
258.228	-0.1
258.6	-0.12
258.973	-0.04
259.345	0.05
259.718	0.06
260.09	0.06
260.462	0.04
260.834	0.09
261.207	0.04
261.579	0.07
261.951	0.15
262.323	0.2
262.695	0.23
263.067	0.28
263.439	0.29
263.811	0.32
264.183	0.34
264.555	0.32
264.927	0.31
265.298	0.31
265.67	0.27
266.042	0.31
266.413	0.28
266.785	0.28
267.156	0.31
267.528	0.32
267.899	0.3
268.271	0.23
268.642	0.15
269.013	0.12
269.385	0.09
269.756	0.03
270.127	0.01
270.498	0.01
270.87	0
271.241	-0.03
271.612	-0.04
271.983	-0.02
272.354	-0.04
272.724	-0.01
273.095	-0.05
273.466	-0.09
273.837	-0.08
274.208	-0.04
274.578	-0.03
274.949	-0.04
275.32	-0.06
275.69	-0.06
276.061	0
276.431	-0.02
276.802	-0.05
277.172	-0.04
277.542	-0.01
277.913	0.01
278.283	0.04
278.653	0.08
279.023	0.13
279.394	0.11
279.764	0.1
280.134	0.06
280.504	0.12
280.874	0.17
281.244	0.11
281.614	0.11
281.983	0.08
282.353	0.06
282.723	0.12
283.093	0.15
283.462	0.08
283.832	0.06
284.202	0.09
284.571	0.02
284.941	-0.01
285.31	-0.03
285.68	0.02
286.049	-0.03
286.418	0.02
286.788	0.04
287.157	-0.01
287.526	0.01
287.895	-0.03
288.264	-0.05
288.633	-0.02
289.002	0.03
289.371	0.06
289.74	-0.01
290.109	-0.02
290.478	-0.03
290.847	-0.08
291.216	-0.1
291.585	-0.07
291.953	-0.09
292.322	-0.1
292.691	-0.1
293.059	-0.11
293.428	-0.11
293.796	-0.08
294.165	-0.09
294.533	-0.13
294.901	-0.2
295.27	-0.19
295.638	-0.26
296.006	-0.31
296.374	-0.3
296.743	-0.34
297.111	-0.35
297.479	-0.33
297.847	-0.4
298.215	-0.44
298.583	-0.44
298.95	-0.45
299.318	-0.48
299.686	-0.44
300.054	-0.42
300.422	-0.39
300.789	-0.39
301.157	-0.42
301.525	-0.43
301.892	-0.44
302.26	-0.42
302.627	-0.45
302.994	-0.45
303.362	-0.43
303.729	-0.42
304.097	-0.39
304.464	-0.37
304.831	-0.36
305.198	-0.35
305.565	-0.34
305.932	-0.33
306.299	-0.31
306.666	-0.3
307.033	-0.31
307.4	-0.28
307.767	-0.3
308.134	-0.31
308.501	-0.32
308.867	-0.33
309.234	-0.32
309.601	-0.3
309.967	-0.33
310.334	-0.3
310.701	-0.3
311.067	-0.29
311.433	-0.28
311.8	-0.29
312.166	-0.31
312.533	-0.32
312.899	-0.35
313.265	-0.37
313.631	-0.36
313.997	-0.36
314.363	-0.38
314.729	-0.4
315.096	-0.47
315.461	-0.49
315.827	-0.51
316.193	-0.42
316.559	-0.42
316.925	-0.36
317.291	-0.27
317.656	-0.27
318.022	-0.29
318.388	-0.31
318.753	-0.36
319.119	-0.35
319.484	-0.34
319.85	-0.3
320.215	-0.34
320.581	-0.35
320.946	-0.31
321.311	-0.26
321.676	-0.27
322.042	-0.27
322.407	-0.24
322.772	-0.25
323.137	-0.27
323.502	-0.24
323.867	-0.15
324.232	-0.15
324.597	-0.1
324.962	-0.08
325.327	-0.17
325.691	-0.14
326.056	-0.18
326.421	-0.21
326.785	-0.18
327.15	-0.17
327.514	-0.12
327.879	-0.11
328.243	-0.1
328.608	-0.11
328.972	-0.14
329.337	-0.11
329.701	-0.08
330.065	-0.15
330.429	-0.17
330.794	-0.2
331.158	-0.17
331.522	-0.26
331.886	-0.25
332.25	-0.25
332.614	-0.3
332.978	-0.44
333.342	-0.37
333.705	-0.4
334.069	-0.46
334.433	-0.51
334.797	-0.55
335.16	-0.54
335.524	-0.58
335.887	-0.63
336.251	-0.61
336.614	-0.65
336.978	-0.7
337.341	-0.72
337.705	-0.79
338.068	-0.71
338.431	-0.67
338.794	-0.69
339.158	-0.59
339.521	-0.64
339.884	-0.55
340.247	-0.57
340.61	-0.5
340.973	-0.54
341.336	-0.51
341.699	-0.5
342.062	-0.44
342.424	-0.42
342.787	-0.46
343.15	-0.47
343.512	-0.43
343.875	-0.41
344.238	-0.45
344.6	-0.43
344.963	-0.38
345.325	-0.44
345.688	-0.44
346.05	-0.4
346.412	-0.4
346.775	-0.35
347.137	-0.44
347.499	-0.44
347.861	-0.42
348.223	-0.53
348.585	-0.5
348.947	-0.51
349.309	-0.51
349.671	-0.54
350.033	-0.51
350.395	-0.53
350.757	-0.53
351.118	-0.55
351.48	-0.6
351.842	-0.53
352.203	-0.48
352.565	-0.46
352.927	-0.47
353.288	-0.48
353.65	-0.51
354.011	-0.56
354.372	-0.5
354.734	-0.54
355.095	-0.52
355.456	-0.56
355.817	-0.6
356.179	-0.6
356.54	-0.63
356.901	-0.68
357.262	-0.61
357.623	-0.68
357.984	-0.71
358.345	-0.68
358.705	-0.65
359.066	-0.63
359.427	-0.61
359.788	-0.6
360.148	-0.54
360.509	-0.48
360.87	-0.5
361.23	-0.44
361.591	-0.38
361.951	-0.43
362.312	-0.4
362.672	-0.35
363.032	-0.29
363.393	-0.32
363.753	-0.25
364.113	-0.32
364.473	-0.28
364.833	-0.19
365.193	-0.25
365.553	-0.24
365.913	-0.29
366.273	-0.28
366.633	-0.2
366.993	-0.23
367.353	-0.29
367.713	-0.34
368.072	-0.33
368.432	-0.33
368.792	-0.32
369.151	-0.35
369.511	-0.42
369.87	-0.44
370.23	-0.46
370.589	-0.54
370.949	-0.5
371.308	-0.52
371.667	-0.53
372.027	-0.57
372.386	-0.56
372.745	-0.62
373.104	-0.54
373.463	-0.55
373.822	-0.61
374.181	-0.5
374.54	-0.52
374.899	-0.44
375.258	-0.46
375.617	-0.48
375.975	-0.48
376.334	-0.45
376.693	-0.43
377.052	-0.48
377.41	-0.5
377.769	-0.56
378.127	-0.58
378.486	-0.56
378.844	-0.53
379.202	-0.58
379.561	-0.57
379.919	-0.59
380.277	-0.61
380.636	-0.63
380.994	-0.67
381.352	-0.69
381.71	-0.63
382.068	-0.63
382.426	-0.63
382.784	-0.6
383.142	-0.65
383.5	-0.65
383.857	-0.68
384.215	-0.71
384.573	-0.67
384.931	-0.69
385.288	-0.7
385.646	-0.74
386.003	-0.72
386.361	-0.7
386.718	-0.66
387.076	-0.62
387.433	-0.6
387.791	-0.63
388.148	-0.61
388.505	-0.64
388.862	-0.61
389.22	-0.54
389.577	-0.55
389.934	-0.49
390.291	-0.52
390.648	-0.56
391.005	-0.59
391.362	-0.55
391.718	-0.55
392.075	-0.54
392.432	-0.59
392.789	-0.6
393.145	-0.62
393.502	-0.62
393.859	-0.61
394.215	-0.59
394.572	-0.55
394.928	-0.59
395.285	-0.63
395.641	-0.69
395.997	-0.67
396.354	-0.71
396.71	-0.68
397.066	-0.71
397.422	-0.63
397.778	-0.68
398.134	-0.75
398.491	-0.74
398.846	-0.76
399.202	-0.76
399.558	-0.73
399.914	-0.78
400.27	-0.8
400.626	-0.78
400.981	-0.82
401.337	-0.71
401.693	-0.77
402.048	-0.76
402.404	-0.72
402.759	-0.72
403.115	-0.8
403.47	-0.74
403.826	-0.71
404.181	-0.71
404.536	-0.69
404.892	-0.72
405.247	-0.74
405.602	-0.82
405.957	-0.82
406.312	-0.85
406.667	-0.84
407.022	-0.78
407.377	-0.75
407.732	-0.71
408.087	-0.63
408.442	-0.63
408.796	-0.61
409.151	-0.54
409.506	-0.6
409.86	-0.5
410.215	-0.45
410.57	-0.38
410.924	-0.31
411.279	-0.37
411.633	-0.37
411.987	-0.35
412.342	-0.4
412.696	-0.36
413.05	-0.32
413.404	-0.26
413.758	-0.17
414.113	-0.1
414.467	-0.04
414.821	-0.03
415.175	0
415.529	-0.01
415.882	-0
416.236	0.03
416.59	-0
416.944	-0.05
417.298	0.03
417.651	0.08
418.005	0.09
418.358	0.15
418.712	0.09
419.065	-0.05
419.419	-0.06
419.772	-0.09
420.126	-0.11
420.479	-0.06
420.832	0.02
421.185	0.08
421.539	0.02
421.892	0.05
422.245	0.03
422.598	-0.01
422.951	-0.03
423.304	-0.04
423.657	-0.04
424.01	-0.12
424.363	-0.04
424.715	0.01
425.068	0.03
425.421	0.06
425.773	0.12
426.126	0.11
426.479	0.12
426.831	0.05
427.184	0.01
427.536	0.02
427.889	0.1
428.241	0.1
428.593	0.06
428.945	0.16
429.298	0.16
429.65	0.11
430.002	-0.01
430.354	-0
430.706	-0
431.058	0.01
431.41	-0.03
431.762	-0.05
432.114	-0.05
432.466	-0.07
432.817	0.02
433.169	0.01
433.521	-0.04
433.872	-0.11
434.224	-0.11
434.576	-0.12
434.927	-0.21
435.279	-0.17
435.63	-0.21
435.981	-0.16
436.333	-0.13
436.684	-0.2
437.035	-0.16
437.387	-0.15
437.738	-0.27
438.089	-0.28
438.44	-0.21
438.791	-0.18
439.142	-0.15
439.493	-0.18
439.844	-0.23
440.195	-0.22
440.545	-0.13
440.896	-0.03
441.247	-0.04
441.598	-0.07
441.948	-0.1
442.299	-0.12
442.649	-0.17
443	-0.23
443.35	-0.31
443.701	-0.36
444.051	-0.43
444.401	-0.36
444.752	-0.39
445.102	-0.42
445.452	-0.38
445.802	-0.36
446.152	-0.33
446.502	-0.19
446.852	-0.17
447.202	-0.2
447.552	-0.2
447.902	-0.17
448.252	-0.2
448.602	0.19
448.952	0.15
449.301	0.12
449.651	0.04
450.001	0.03
450.35	0.03
450.7	0.07
451.049	0.07
451.399	0.1
451.748	0.12
452.097	0.18
452.447	0.17
452.796	0.11
453.145	0.18
453.494	0.21
453.843	0.14
454.193	0.17
454.542	0.19
454.891	0.16
455.239	0.1
455.588	0.05
455.937	0.07
456.286	0.17
456.635	0.14
456.984	0.18
457.332	-0.21
457.681	-0.15
458.03	-0.18
458.378	-0.19
458.727	-0.11
459.075	-0.09
459.423	-0.07
459.772	-0.11
460.12	-0.07
460.468	0.05
460.817	0.11
461.165	0.21
461.513	0.24
461.861	0.25
462.209	0.16
462.557	0.18
462.905	0.11
463.253	0.08
463.601	0.18
463.949	0.16
464.297	0.16
464.644	0.17
464.992	0.07
465.34	0.03
465.687	0.1
466.035	0.24
466.383	0.15
466.73	0.15
467.078	0.19
467.425	0.23
467.772	0.29
468.12	0.25
468.467	0.32
468.814	0.33
469.161	0.25
469.508	0.2
469.856	0.19
470.203	0.23
470.55	0.12
470.897	0.28
471.243	0.37
471.59	0.43
471.937	0.43
472.284	0.44
472.631	0.4
472.977	0.41
473.324	0.46
473.671	0.44
474.017	0.49
474.364	0.41
474.71	0.3
475.057	0.36
475.403	0.35
475.749	0.35
476.096	0.31
476.442	0.31
476.788	0.25
477.134	0.31
477.48	0.31
477.826	0.33
478.172	0.33
478.518	0.34
478.864	0.38
479.21	0.43
479.556	0.32
479.902	0.33
480.248	0.35
480.593	0.33
480.939	0.32
481.285	0.43
481.63	0.48
481.976	0.41
482.321	0.4
482.667	0.38
483.012	0.38
483.357	0.36
483.703	0.36
484.048	0.38
484.393	0.44
484.738	0.46
485.084	0.47
485.429	0.55
485.774	0.53
486.119	0.51
486.464	0.58
486.808	0.57
487.153	0.64
487.498	0.69
487.843	0.71
488.188	0.84
488.532	0.85
488.877	0.93
489.222	1.05
489.566	1.09
489.911	1.09
490.255	1.14
490.6	1.24
490.944	1.36
491.288	1.49
491.633	1.57
491.977	1.69
492.321	1.83
492.665	1.95
493.009	1.99
493.353	2.1
493.697	2.22
494.041	2.33
494.385	2.47
494.729	2.66
495.073	2.75
495.417	2.94
495.76	3.08
496.104	3.2
496.448	3.34
496.791	3.45
497.135	3.61
497.479	3.76
497.822	3.92
498.165	4.1
498.509	4.36
498.852	4.59
499.196	4.83
499.539	5.08
499.882	5.32
500.225	5.6
500.568	5.86
500.911	6.09
501.254	6.44
501.597	6.74
501.94	6.95
502.283	7.25
502.626	7.62
502.969	7.87
503.312	8.18
503.654	8.46
503.997	8.82
504.34	9.28
504.682	9.71
505.025	10.19
505.367	10.6
505.71	11.03
506.052	11.42
506.395	11.83
506.737	12.28
507.079	12.68
507.421	13.12
507.764	13.6
508.106	14.11
508.448	14.64
508.79	15.12
509.132	15.72
509.474	16.34
509.816	16.75
510.158	17.19
510.499	17.78
510.841	18.3
511.183	18.75
511.525	19.32
511.866	19.83
512.208	20.33
512.549	20.81
512.891	21.19
513.232	21.64
513.574	22.11
513.915	22.71
514.256	23.24
514.598	23.76
514.939	24.36
515.28	24.84
515.621	25.31
515.962	25.8
516.303	26.28
516.644	26.73
516.985	27.16
517.326	27.62
517.667	28.03
518.008	28.39
518.349	28.85
518.69	29.3
519.03	29.81
519.371	30.29
519.712	30.69
520.052	30.98
520.393	31.39
520.733	31.76
521.074	32.18
521.414	32.69
521.754	33.15
522.095	33.63
522.435	33.97
522.775	34.31
523.115	34.63
523.455	34.85
523.795	35.22
524.135	35.58
524.475	36.08
524.815	36.46
525.155	36.79
525.495	37.09
525.835	37.41
526.175	37.56
526.514	37.86
526.854	38.2
527.194	38.52
527.533	38.72
527.873	38.96
528.212	39.39
528.552	39.79
528.891	40.05
529.23	40.47
529.57	40.68
529.909	40.85
530.248	41.05
530.587	41.2
530.927	41.46
531.266	41.62
531.605	41.89
531.944	42.23
532.283	42.35
532.621	42.43
532.96	42.46
533.299	42.56
533.638	42.69
533.977	42.88
534.315	43.08
534.654	43.39
534.992	43.54
535.331	43.5
535.67	43.62
536.008	43.73
536.346	43.75
536.685	43.75
537.023	43.79
537.361	43.86
537.7	43.94
538.038	44.03
538.376	44.22
538.714	44.34
539.052	44.45
539.39	44.45
539.728	44.54
540.066	44.71
540.404	44.76
540.741	44.94
541.079	45.19
541.417	45.31
541.755	45.4
542.092	45.47
542.43	45.6
542.767	45.53
543.105	45.56
543.442	45.68
543.78	45.79
544.117	45.89
544.454	45.88
544.792	46.05
545.129	46.2
545.466	46.39
545.803	46.68
546.14	46.8
546.477	46.89
546.814	46.84
547.151	46.92
547.488	46.88
547.825	46.93
548.162	46.96
548.499	46.93
548.835	47.01
549.172	47.06
549.509	47.15
549.845	47.25
550.182	47.31
550.518	47.33
550.855	47.38
551.191	47.53
551.528	47.57
551.864	47.47
552.2	47.55
552.537	47.55
552.873	47.79
553.209	47.78
553.545	47.84
553.881	47.75
554.217	47.76
554.553	47.74
554.889	47.8
555.225	47.89
555.561	47.88
555.896	47.89
556.232	47.91
556.568	48.01
556.903	48.05
557.239	47.98
557.575	47.97
557.91	48.03
558.245	48.27
558.581	48.34
558.916	48.53
559.252	48.5
559.587	48.48
559.922	48.47
560.257	48.66
560.592	48.79
560.928	48.85
561.263	48.84
561.598	48.92
561.933	48.92
562.267	49.22
562.602	49.1
562.937	49.23
563.272	49.41
563.607	49.58
563.941	49.82
564.276	50.04
564.611	50.19
564.945	50.17
565.28	50.46
565.614	50.69
565.949	50.74
566.283	50.9
566.617	50.74
566.951	50.77
567.286	50.84
567.62	51
567.954	51.27
568.288	51.28
568.622	51.33
568.956	51.33
569.29	51.39
569.624	51.35
569.958	51.51
570.292	51.51
570.626	51.46
570.959	51.6
571.293	51.6
571.627	51.68
571.96	51.61
572.294	51.51
572.627	51.4
572.961	51.41
573.294	51.53
573.627	51.44
573.961	51.45
574.294	51.56
574.627	51.52
574.961	51.7
575.294	51.87
575.627	51.86
575.96	51.89
576.293	51.73
576.626	51.78
576.959	51.76
577.292	51.74
577.624	51.86
577.957	51.99
578.29	51.97
578.623	52.02
578.955	52.01
579.288	52.09
579.62	52.13
579.953	52.05
580.285	52.14
580.618	52.22
580.95	52.4
581.282	52.44
581.615	52.47
581.947	52.51
582.279	52.45
582.611	52.47
582.943	52.55
583.275	52.4
583.607	52.32
583.939	52.33
584.271	52.31
584.603	52.47
584.935	52.47
585.267	52.49
585.598	52.59
585.93	52.62
586.262	52.56
586.593	52.51
586.925	52.41
587.256	52.34
587.588	52.22
587.919	52.29
588.25	52.34
588.582	52.4
588.913	52.43
589.244	52.44
589.575	52.48
589.907	52.55
590.238	52.58
590.569	52.71
590.9	52.72
591.231	52.74
591.562	52.82
591.892	52.87
592.223	52.96
592.554	52.99
592.885	52.88
593.215	52.94
593.546	52.96
593.877	53.05
594.207	53
594.538	52.99
594.868	53.05
595.198	53.03
595.529	53.13
595.859	53.15
596.189	53.1
596.52	53.09
596.85	53.06
597.18	53.1
597.51	53.1
597.84	53.05
598.17	53.01
598.5	52.96
598.83	52.96
599.16	52.91
599.489	52.87
599.819	52.89
600.149	52.81
600.479	52.77
600.808	52.77
601.138	52.77
601.467	52.7
601.797	52.68
602.126	52.59
602.456	52.57
602.785	52.63
603.114	52.5
603.443	52.71
603.773	52.78
604.102	52.9
604.431	52.91
604.76	52.92
605.089	52.88
605.418	52.72
605.747	52.63
606.076	52.65
606.405	52.57
606.733	52.69
607.062	52.72
607.391	52.75
607.72	52.78
608.048	52.72
608.377	52.67
608.705	52.62
609.034	52.62
609.362	52.62
609.69	52.76
610.019	52.92
610.347	52.98
610.675	52.87
611.004	52.93
611.332	53.06
611.66	53.14
611.988	53.07
612.316	52.98
612.644	52.92
612.972	52.98
613.3	52.84
613.627	52.91
613.955	53
614.283	53.01
614.611	53.15
614.938	53.01
615.266	52.86
615.593	52.83
615.921	52.81
616.248	53.08
616.576	53.33
616.903	53.29
617.23	53.37
617.558	53.4
617.885	53.26
618.212	53.21
618.539	52.93
618.866	52.95
619.193	52.79
619.52	52.72
619.847	52.63
620.174	52.84
620.501	52.82
620.828	53.01
621.155	52.93
621.481	53.08
621.808	53.1
622.135	53.11
622.461	53.16
622.788	53.19
623.114	53.43
623.441	53.25
623.767	53.28
624.093	53.04
624.42	52.84
624.746	52.87
625.072	52.83
625.398	52.53
625.725	52.79
626.051	52.84
626.377	52.58
626.703	52.76
627.029	52.74
627.354	52.8
627.68	52.65
628.006	52.44
628.332	52.21
628.658	51.91
628.983	51.33
629.309	51.36
629.634	51.29
629.96	51.46
630.285	51.02
630.611	50.76
630.936	50.63
631.262	50.19
631.587	50.22
631.912	50.11
632.237	49.97
632.562	50.06
632.887	49.99
633.213	50.12
633.538	50.07
633.863	49.81
634.187	50.06
634.512	50.21
634.837	50.52
635.162	50.49
635.487	50.36
635.811	50.74
636.136	50.94
636.461	50.56
636.785	50.68
637.11	51.29
637.434	51.8
637.758	52.2
638.083	52.37
638.407	52.35
638.731	52.38
639.056	52.38
639.38	52.54
639.704	53.39
640.028	53.48
640.352	53.72
640.676	53.67
641	53.67
641.324	53.7
641.648	54.09
641.972	53.95
642.295	53.56
642.619	53.39
642.943	52.73
643.266	52.35
643.59	52.32
643.913	52.41
644.237	52.12
644.56	52.31
644.884	52.26
645.207	52.69
645.53	52.41
645.854	52.13
646.177	51.61
646.5	52.05
646.823	52.19
647.146	51.93
647.469	51.64
647.792	51.07
648.115	50.98
648.438	51.71
648.761	52.99
649.084	54.07
649.406	54.42
649.729	54.03
650.052	53.67
650.374	53.45
650.697	53.39
651.019	53.38
651.342	53.47
651.664	53.48
651.987	53.41
652.309	53.44
652.631	53.42
652.953	53.48
653.276	53.4
653.598	53.32
653.92	53.44
654.242	53.61
654.564	53.84
654.886	53.78
655.208	53.79
655.53	53.97
655.851	54.03
656.173	54.11
656.495	53.9
656.816	53.2
657.138	52.17
657.46	51.44
657.781	51.08
658.103	51.5
658.424	51.94
658.746	52.55
659.067	53.27
659.388	52.78
659.709	53.39
660.031	53.38
660.352	53.61
660.673	53.97
660.994	53.7
661.315	52.87
661.636	52.34
661.957	52.12
662.278	51.83
662.599	51.31
662.919	51.59
663.24	52.54
663.561	52.08
663.881	51.63
664.202	50.58
664.523	50.17
664.843	50
665.164	49.97
665.484	49.24
665.804	49.39
666.125	49.41
666.445	49.49
666.765	49.4
667.085	49.62
667.405	50.42
667.726	49.89
668.046	50.59
668.366	50.38
668.686	49.78
669.005	50.48
669.325	50.95
669.645	51.1
669.965	50.44
670.285	50.27
670.604	49.67
670.924	50.17
671.243	49.65
671.563	49.37
671.882	49.48
672.202	49.86
672.521	50.15
672.841	50.5
673.16	50.97
673.479	51.45
673.798	50.93
674.117	51.08
674.437	50.59
674.756	50.14
675.075	49.91
675.394	49.49
675.713	49.57
676.031	48.74
676.35	48.62
676.669	48.33
676.988	47.83
677.306	47.52
677.625	48.56
677.944	49.08
678.262	49.09
678.581	49.72
678.899	49
679.218	49.11
679.536	49.44
679.854	49.93
680.172	50.09
680.491	49.86
680.809	49.38
681.127	49.95
681.445	49.8
681.763	49.72
682.081	49.05
682.399	49.69
682.717	49.96
683.035	49.99
683.352	50.07
683.67	50.1
683.988	50.6
684.306	50.98
684.623	52.32
684.941	52.74
685.258	52.65
685.576	51.44
685.893	51.24
686.211	51.38
686.528	50.94
686.845	50.99
687.162	50.7
687.48	51.03
687.797	51.15
688.114	51.55
688.431	51.59
688.748	52.26
689.065	51.81
689.382	51.79
689.699	52.02
690.015	52.11
690.332	52.36
690.649	52
690.966	51.98
691.282	52.74
691.599	52.32
691.915	52.07
692.232	51.31
692.548	50.33
692.865	50.15
693.181	50.5
693.497	51.62
693.813	52.3
694.13	52.56
694.446	52.22
694.762	52.44
695.078	52.94
695.394	52.83
695.71	51.57
696.026	51.25
696.342	51.73
696.658	51.86
696.973	52.18
697.289	52.05
697.605	52.86
697.92	53.47
698.236	53.02
698.551	53.07
698.867	53.64
699.182	53.32
699.498	54.58
699.813	55.61
700.128	56.69
700.444	56.9
700.759	56.14
701.074	56.07
701.389	55.32
701.704	54.77
702.019	54.44
702.334	55.07
702.649	54.84
702.964	54.1
703.279	53.86
703.594	53.94
703.908	54.18
704.223	53.88
704.538	53.63
704.852	53.48
705.167	53.25
705.481	52.27
705.796	52.71
706.11	52.08
706.425	52.41
706.739	52.08
707.053	52.31
707.368	51.23
707.682	50.93
707.996	51.07
708.31	50.65
708.624	51.63
708.938	51.88
709.252	51.73
709.566	52.54
709.88	51.51
710.193	50.83
710.507	51.19
710.821	52.13
711.135	52.15
711.448	53.1
711.762	53.58
712.075	53.87
712.389	54.43
712.702	54.6
713.015	54.46
713.329	55.05
713.642	54.87
713.955	56.09
714.269	55.63
714.582	54.32
714.895	52.69
715.208	54.17
715.521	53.74
715.834	52.64
716.147	51.65
716.459	51.32
716.772	50.97
717.085	52.28
717.398	50.89
717.71	52.19
718.023	52.62
718.336	53.44
718.648	52.56
718.961	51.58
719.273	51.35
719.585	49.91
719.898	50.35
720.21	49.83
720.522	49
720.834	50.56
721.147	50.64
721.459	50.38
721.771	50.62
722.083	50.92
722.395	51.11
722.707	52.05
723.019	50.93
723.33	50.55
723.642	50.71
723.954	51.64
724.265	51.26
724.577	51.11
724.889	51.63
725.2	51.56
725.512	51.18
725.823	51.44
726.135	50.03
726.446	50.51
726.757	51.1
727.068	50.42
727.38	50.41
727.691	50
728.002	50.09
728.313	49.91
728.624	48.72
728.935	48.61
729.246	47.79
729.557	46.56
729.867	46.08
730.178	46.69
730.489	46.97
730.8	47.15
731.11	47.18
731.421	47.58
731.731	49.29
732.042	49.89
732.352	49.29
732.663	48.21
732.973	48.97
733.283	49.36
733.594	49.58
733.904	49.78
734.214	49.56
734.524	50.35
734.834	51.71
735.144	52.08
735.454	51.89
735.764	52.33
736.074	52.41
736.384	52.28
736.694	50.96
737.003	51.14
737.313	51.04
737.623	50.67
737.932	50.85
738.242	50.05
738.551	50.95
738.861	51.17
739.17	51.97
739.479	50.61
739.789	49.38
740.098	51.5
740.407	51.43
740.716	51.46
741.025	50.96
741.334	50.33
741.643	49.93
741.952	51.39
742.261	51.21
742.57	50.12
742.879	49.53
743.188	49.7
743.497	50
743.805	50.9
744.114	52.71
744.422	53.91
744.731	57.12
745.04	57.49
745.348	59.29
745.656	59.94
745.965	60.64
746.273	59.25
746.581	61.36
746.889	58.82
747.198	58.76
747.506	57.64
747.814	54.71
748.122	53.81
748.43	52.81
748.738	53.23
749.046	52.75
749.353	55.18
749.661	52.9
749.969	50.78
750.277	49.38
750.584	50.41
750.892	49.06
751.199	48.77
751.507	48.86
751.814	48.91
752.122	50.19
752.429	48.85
752.736	51.23
753.044	51.44
753.351	50.79
753.658	50.55
753.965	49.67
754.272	46.88
754.579	45.4
754.886	44.57
755.193	46.4
755.5	49.24
755.807	51.35
756.114	51.28
756.42	50.43
756.727	51.87
757.034	51.55
757.34	52.31
757.647	53.45
757.953	54.02
758.26	54.77
758.566	53.14
758.872	51.81
759.179	51.82
759.485	49.86
759.791	48.65
760.097	47.66
760.403	47.43
760.709	46.09
761.015	47.28
761.321	49.37
761.627	47.45
761.933	47.08
762.239	49.24
762.545	49.08
762.851	48.7
763.156	44.57
763.462	43.08
763.767	44.58
764.073	47.43
764.378	42.35
764.684	38.46
764.989	37.37
765.295	37.51
765.6	38.34
765.905	37.4
766.21	40.81
766.515	41.23
766.821	38.9
767.126	40.64
767.431	40.9
767.736	41.84
768.041	35.88
768.345	35.43
768.65	28.69
768.955	21.31
769.26	21.58
769.564	26.11
769.869	26.1
770.174	31.11
770.478	30.73
770.783	29.6
771.087	30.79
771.391	27.57
771.696	23.7
772	33.14
772.304	42.71
772.608	45.13
772.913	47.27
773.217	49.05
773.521	44.01
773.825	45.58
774.129	44.18
774.433	45.71
774.736	41.52
775.04	44.94
775.344	41.76
775.648	49.21
775.951	52.18
776.255	58.12
776.559	54.81
776.862	65.58
777.166	66.29
777.469	71.56
777.772	65.72
778.076	68.2
778.379	75.91
778.682	69.92
778.985	68.34
779.289	69.02
779.592	64.35
779.895	61.77
780.198	68.74
780.501	64.47
780.804	67.26
781.106	69.39
781.409	70.27
781.712	76.55
782.015	76.32
782.317	74.51
782.62	70.83
782.923	65.83
783.225	59.4
783.527	59.66
783.83	55.55
784.132	60.57
784.435	60.31
784.737	55.57
785.039	56.3
785.341	50.46
785.643	42.63
785.945	34.94
786.248	38.42
786.55	39.5
786.851	37.78
787.153	40.2
787.455	35.28
787.757	29.35
788.059	28.13
788.36	17.45
788.662	17.17
788.964	19.32
789.265	24.27
789.567	19.38
789.868	22.77
790.17	24.17
790.471	27.83
790.772	31.36
791.074	33.76
791.375	37.36
791.676	34.4
791.977	32.26
792.278	24.14
792.579	18.97
792.88	23.36
793.181	21.39
793.482	18.85
793.783	18.87
794.083	3.69
794.384	29.5
794.685	31.82
794.986	36.23
795.286	32.21
795.587	37.47
795.887	42.82
796.188	40.34
796.488	26.71
796.788	22.7
797.089	29.13
797.389	29.74
797.689	22.45
797.989	24.33
798.289	14.75
798.589	-16.43
798.889	-5.21
799.189	-2.17
799.489	-55.75
799.789	6.76
800.089	19.73
800.389	43.38
800.688	46.54
800.988	47.85
801.288	39.92
801.587	35.15
801.887	5.18
802.186	-25.96
802.486	-42.8
802.785	-72.09
803.085	-38.81
803.384	-23.78
803.683	11.57
803.982	12.15
804.281	9.92
804.58	3.76
804.879	-17.18
805.178	-8.46
805.477	-24.17
805.776	15.5
806.075	20.47
806.374	5.44
806.673	19.67
806.971	38.62
807.27	19.53
807.569	0.1
807.867	-72.9
808.166	-113.48
808.464	-37.43
808.763	-60.43
809.061	-58.5
809.359	-140.2
809.658	-105.31
809.956	-33.1
810.254	-77.81
810.552	438.73
810.85	209.16
811.148	176.5
811.446	117.02
811.744	88.69
812.042	86.96
812.34	61.69
812.638	84.72
812.935	97.06
813.233	112.11
813.531	112.4
813.828	146.79
814.126	153.05
814.423	126.96
814.721	137.23
815.018	149.16
815.316	144.83
815.613	124.75
815.91	140.81
816.207	129.29
816.504	160.19
816.802	159.78
817.099	187.57
817.396	245.28
817.693	429.94
817.99	534.13
818.286	639.12
818.583	726.23
818.88	3316.67
819.177	-4647.3
819.473	-1958.99
819.77	-2261.11
820.067	-1496.9
820.363	-662.65
820.66	-394.56
820.956	-326.98
821.252	-206.54
821.549	-163.39
821.845	-126.05
822.141	-107.13
822.437	-71.95
822.734	-67.2
823.03	-68.39
823.326	-75.38
823.622	-87.46
823.918	-124.67
824.213	-87.4
824.509	-79.45
824.805	-81.63
825.101	-81.06
825.397	-115.89
825.692	-106.51
825.988	-63.43
826.283	-43.87
826.579	-52.29
826.874	-32.75
827.17	-14.69
827.465	-30.75
827.76	-48.05
828.056	-93.71
828.351	-58.65
828.646	-110.54
828.941	-489.2
829.236	859.35
829.531	488.86
829.826	243.32
830.121	330.14
830.416	288.31
830.711	234.34
831.006	270.55
831.3	312.54
831.595	283.07
831.89	417.79
832.184	325.52
832.479	426.96
832.773	347.76
833.068	313.41
833.362	217.25
833.656	192.76
833.951	225.5
834.245	175.28
834.539	147.64
834.833	153.76
835.127	215.61
835.421	206.66
835.715	198.97
836.009	242.67
836.303	571.74
836.597	673.23
836.891	-1713.27
837.185	-301.78
837.478	-403.89
837.772	-271.99
838.066	-118.22
838.359	-107.89
838.653	-179.59
838.946	-164.18
839.24	-444.34
839.533	-73.81
839.826	1375.93
840.119	1221.43
840.413	-1074.14
840.706	-793.84
840.999	-104.41
841.292	-146.27
841.585	-48.92
841.878	-163.15
842.171	-40.2
842.464	-21.49
842.757	-8.76
843.049	-35.71
843.342	216.1
843.635	23.16
843.927	-20.55
844.22	58.35
844.513	78.13
844.805	95.26
845.098	98.78
845.39	110.94
845.682	158.41
845.975	135.81
846.267	156.81
846.559	147.15
846.851	157.83
847.143	210.1
847.435	246.28
847.727	232.22
848.019	149.75
848.311	129.92
848.603	195.53
848.895	164.47
849.186	96.91
849.478	84.41
849.77	112.83
850.061	405.4
850.353	730.46
850.645	-379.7
850.936	-133.62
851.227	-1822
851.519	-125.12
851.81	-70.87
852.101	-87.53
852.393	-7.59
852.684	9.63
852.975	22.04
853.266	-12.25
853.557	10.99
853.848	28.48
854.139	48.6
854.43	72.27
854.72	70.86
855.011	63.13
855.302	74.11
855.593	101.61
855.883	101
856.174	57.67
856.464	29.68
856.755	41.84
857.045	52.74
857.336	134.11
857.626	111.97
857.916	74.41
858.206	55.54
858.497	30.52
858.787	-3.82
859.077	13.64
859.367	726.19
859.657	32.48
859.947	15.26
860.237	-5.12
860.527	3.88
860.816	-6.19
861.106	-10.38
861.396	-59.14
861.685	-64.04
861.975	-51.9
862.265	-55.36
862.554	-73.98
862.844	-102.13
863.133	-198.91
863.422	-308.42
863.712	-668.37
864.001	527.33
864.29	438.1
864.579	303.11
864.868	174.18
865.157	121.32
865.446	97.86
865.735	135.71
866.024	66.84
866.313	91.71
866.602	155.88
866.891	98.03
867.179	86.77
867.468	69.54
