Data from T2__Reflection__57__00-40-19-777.txt Node

Date: Sat Jun 05 00:40:19 CEST 2021
User: mabdelazizm
Spectrometer: FLMS18565
Trigger mode: 0
Integration Time (sec): 2.000000E0
Scans to average: 1
Electric dark correction enabled: true
Nonlinearity correction enabled: false
Boxcar width: 12
XAxis mode: Wavelengths
Number of Pixels in Spectrum: 2048
>>>>>Begin Spectral Data<<<<<
179.071	45.06
179.452	38.58
179.833	26.08
180.214	78.48
180.595	183.15
180.977	407.35
181.358	136.06
181.739	175
182.12	115.99
182.501	121.5
182.882	133.37
183.262	185.53
183.643	-374.32
184.024	-55.32
184.405	-9.8
184.786	-14.94
185.166	19.2
185.547	16.02
185.927	20.54
186.308	19.49
186.689	34.99
187.069	37.16
187.449	28.64
187.83	22.85
188.21	12.01
188.59	11.17
188.971	8.5
189.351	4.5
189.731	11.16
190.111	5.11
190.491	1.34
190.871	-2.51
191.251	6.57
191.631	15.35
192.011	12.31
192.391	14.29
192.771	18.95
193.151	20.35
193.531	19.49
193.91	16.56
194.29	19.3
194.67	18.97
195.049	20.55
195.429	20.22
195.808	16.25
196.188	13.16
196.567	10.97
196.946	15.03
197.326	16.06
197.705	18.9
198.084	19.15
198.464	19.79
198.843	18.61
199.222	17.98
199.601	20.29
199.98	19.59
200.359	20.61
200.738	19.83
201.117	14.49
201.496	15.77
201.875	11.93
202.254	8.49
202.632	8.15
203.011	10.19
203.39	9.71
203.768	9.02
204.147	9.57
204.525	8.9
204.904	7.92
205.282	9.26
205.661	10.08
206.039	9.47
206.418	6.41
206.796	8.68
207.174	6.74
207.552	8.35
207.931	8.16
208.309	9.22
208.687	7.95
209.065	8.2
209.443	7.17
209.821	7.12
210.199	5.15
210.577	7.9
210.954	8.56
211.332	8.51
211.71	8.95
212.088	9.03
212.465	4.47
212.843	6.1
213.221	5.94
213.598	2.91
213.976	1.25
214.353	1.12
214.731	2.12
215.108	1.01
215.485	0.96
215.863	-0.38
216.24	-1.28
216.617	-0.32
216.994	-1.91
217.371	-1.75
217.749	-1.95
218.126	0.03
218.503	0.1
218.88	-0.74
219.256	0.83
219.633	1.74
220.01	0.12
220.387	1.06
220.764	1.09
221.14	0.34
221.517	0.18
221.894	1.07
222.27	0.54
222.647	0.44
223.023	1.45
223.4	1.75
223.776	1.37
224.153	0.05
224.529	0.14
224.905	1.11
225.282	1.86
225.658	1.2
226.034	1.14
226.41	1.25
226.786	1.17
227.162	1.05
227.538	0.82
227.914	1.02
228.29	1.25
228.666	0.65
229.042	0.62
229.418	0.77
229.793	0.59
230.169	0.7
230.545	0.8
230.92	0.52
231.296	0.35
231.672	0.57
232.047	0.65
232.422	0.48
232.798	0.5
233.173	0.71
233.549	0.95
233.924	1.04
234.299	0.76
234.674	0.81
235.05	1.03
235.425	0.97
235.8	0.96
236.175	0.94
236.55	0.97
236.925	1.06
237.3	0.93
237.675	1.08
238.049	1.15
238.424	1.09
238.799	1.12
239.174	1.14
239.548	1.15
239.923	1.09
240.297	1.12
240.672	1.28
241.046	1.14
241.421	1.11
241.795	1.15
242.17	1.18
242.544	1.18
242.918	1.09
243.293	0.98
243.667	0.93
244.041	0.96
244.415	0.96
244.789	0.91
245.163	0.87
245.537	0.9
245.911	0.85
246.285	0.77
246.659	0.82
247.033	0.78
247.406	0.71
247.78	0.71
248.154	0.74
248.528	0.67
248.901	0.74
249.275	0.73
249.648	0.78
250.022	0.69
250.395	0.78
250.769	0.78
251.142	0.82
251.515	0.83
251.888	0.85
252.262	0.93
252.635	0.94
253.008	0.93
253.381	0.94
253.754	0.91
254.127	0.93
254.5	0.92
254.873	0.87
255.246	0.94
255.619	0.95
255.992	0.95
256.364	0.94
256.737	0.98
257.11	1
257.483	0.99
257.855	0.93
258.228	0.88
258.6	0.89
258.973	0.96
259.345	1.05
259.718	0.98
260.09	0.95
260.462	0.91
260.834	0.94
261.207	0.87
261.579	0.8
261.951	0.8
262.323	0.84
262.695	0.8
263.067	0.81
263.439	0.84
263.811	0.86
264.183	0.91
264.555	0.86
264.927	0.84
265.298	0.88
265.67	0.85
266.042	0.88
266.413	0.87
266.785	0.81
267.156	0.9
267.528	0.92
267.899	0.91
268.271	0.82
268.642	0.77
269.013	0.79
269.385	0.75
269.756	0.69
270.127	0.72
270.498	0.78
270.87	0.8
271.241	0.82
271.612	0.78
271.983	0.78
272.354	0.78
272.724	0.78
273.095	0.83
273.466	0.81
273.837	0.79
274.208	0.83
274.578	0.75
274.949	0.8
275.32	0.76
275.69	0.75
276.061	0.8
276.431	0.79
276.802	0.74
277.172	0.77
277.542	0.8
277.913	0.81
278.283	0.83
278.653	0.87
279.023	0.92
279.394	0.9
279.764	0.81
280.134	0.79
280.504	0.84
280.874	0.88
281.244	0.88
281.614	0.86
281.983	0.81
282.353	0.76
282.723	0.78
283.093	0.82
283.462	0.81
283.832	0.81
284.202	0.81
284.571	0.8
284.941	0.79
285.31	0.79
285.68	0.81
286.049	0.81
286.418	0.82
286.788	0.88
287.157	0.82
287.526	0.84
287.895	0.87
288.264	0.84
288.633	0.86
289.002	0.88
289.371	0.9
289.74	0.88
290.109	0.86
290.478	0.86
290.847	0.86
291.216	0.87
291.585	0.89
291.953	0.86
292.322	0.88
292.691	0.87
293.059	0.84
293.428	0.83
293.796	0.79
294.165	0.78
294.533	0.75
294.901	0.73
295.27	0.71
295.638	0.68
296.006	0.58
296.374	0.62
296.743	0.52
297.111	0.46
297.479	0.51
297.847	0.46
298.215	0.51
298.583	0.43
298.95	0.39
299.318	0.43
299.686	0.46
300.054	0.44
300.422	0.44
300.789	0.42
301.157	0.41
301.525	0.36
301.892	0.34
302.26	0.41
302.627	0.38
302.994	0.42
303.362	0.4
303.729	0.42
304.097	0.44
304.464	0.5
304.831	0.51
305.198	0.54
305.565	0.56
305.932	0.6
306.299	0.63
306.666	0.64
307.033	0.64
307.4	0.6
307.767	0.69
308.134	0.7
308.501	0.71
308.867	0.7
309.234	0.72
309.601	0.76
309.967	0.74
310.334	0.76
310.701	0.76
311.067	0.79
311.433	0.72
311.8	0.74
312.166	0.76
312.533	0.78
312.899	0.74
313.265	0.71
313.631	0.67
313.997	0.68
314.363	0.64
314.729	0.57
315.096	0.56
315.461	0.53
315.827	0.45
316.193	0.45
316.559	0.47
316.925	0.47
317.291	0.5
317.656	0.43
318.022	0.37
318.388	0.35
318.753	0.28
319.119	0.3
319.484	0.3
319.85	0.29
320.215	0.28
320.581	0.31
320.946	0.32
321.311	0.3
321.676	0.31
322.042	0.31
322.407	0.31
322.772	0.32
323.137	0.27
323.502	0.29
323.867	0.35
324.232	0.35
324.597	0.38
324.962	0.42
325.327	0.41
325.691	0.46
326.056	0.48
326.421	0.48
326.785	0.51
327.15	0.51
327.514	0.52
327.879	0.56
328.243	0.49
328.608	0.52
328.972	0.52
329.337	0.46
329.701	0.51
330.065	0.48
330.429	0.46
330.794	0.42
331.158	0.47
331.522	0.43
331.886	0.46
332.25	0.45
332.614	0.44
332.978	0.37
333.342	0.39
333.705	0.34
334.069	0.31
334.433	0.33
334.797	0.27
335.16	0.21
335.524	0.16
335.887	0.16
336.251	0.17
336.614	0.14
336.978	0.11
337.341	0.14
337.705	0.09
338.068	0.17
338.431	0.25
338.794	0.19
339.158	0.2
339.521	0.23
339.884	0.28
340.247	0.21
340.61	0.22
340.973	0.12
341.336	0.12
341.699	0.09
342.062	0.14
342.424	0.12
342.787	0.12
343.15	0.08
343.512	0.06
343.875	0.02
344.238	0.05
344.6	0.08
344.963	0.12
345.325	0.09
345.688	0.1
346.05	0.07
346.412	0.07
346.775	0.12
347.137	0.05
347.499	0.04
347.861	0.1
348.223	0.07
348.585	0.05
348.947	0.07
349.309	0.09
349.671	0.13
350.033	0.2
350.395	0.2
350.757	0.22
351.118	0.19
351.48	0.18
351.842	0.25
352.203	0.31
352.565	0.3
352.927	0.35
353.288	0.35
353.65	0.34
354.011	0.28
354.372	0.35
354.734	0.36
355.095	0.4
355.456	0.37
355.817	0.28
356.179	0.27
356.54	0.2
356.901	0.13
357.262	0.12
357.623	0.1
357.984	0.12
358.345	0.12
358.705	0.12
359.066	0.1
359.427	0.14
359.788	0.14
360.148	0.2
360.509	0.26
360.87	0.25
361.23	0.27
361.591	0.31
361.951	0.31
362.312	0.29
362.672	0.33
363.032	0.43
363.393	0.38
363.753	0.42
364.113	0.37
364.473	0.41
364.833	0.45
365.193	0.46
365.553	0.52
365.913	0.51
366.273	0.62
366.633	0.65
366.993	0.63
367.353	0.64
367.713	0.63
368.072	0.65
368.432	0.67
368.792	0.68
369.151	0.65
369.511	0.61
369.87	0.59
370.23	0.56
370.589	0.53
370.949	0.48
371.308	0.54
371.667	0.51
372.027	0.48
372.386	0.52
372.745	0.48
373.104	0.53
373.463	0.5
373.822	0.51
374.181	0.52
374.54	0.46
374.899	0.46
375.258	0.37
375.617	0.36
375.975	0.29
376.334	0.24
376.693	0.24
377.052	0.19
377.41	0.17
377.769	0.18
378.127	0.17
378.486	0.2
378.844	0.22
379.202	0.22
379.561	0.13
379.919	0.14
380.277	0.08
380.636	0.06
380.994	-0.02
381.352	-0.05
381.71	-0.05
382.068	-0.04
382.426	-0.02
382.784	0.01
383.142	0.03
383.5	0.06
383.857	0.07
384.215	0.04
384.573	0.01
384.931	0.06
385.288	0.12
385.646	0.09
386.003	0.13
386.361	0.13
386.718	0.08
387.076	0.13
387.433	0.13
387.791	0.13
388.148	0.13
388.505	0.16
388.862	0.19
389.22	0.21
389.577	0.18
389.934	0.18
390.291	0.16
390.648	0.16
391.005	0.16
391.362	0.2
391.718	0.23
392.075	0.28
392.432	0.23
392.789	0.23
393.145	0.28
393.502	0.34
393.859	0.27
394.215	0.23
394.572	0.27
394.928	0.22
395.285	0.17
395.641	0.18
395.997	0.15
396.354	0.07
396.71	0.13
397.066	0.11
397.422	0.13
397.778	0.11
398.134	0.09
398.491	0.07
398.846	0.09
399.202	0.1
399.558	0.07
399.914	0.02
400.27	-0.01
400.626	-0.08
400.981	-0.2
401.337	-0.11
401.693	-0.12
402.048	-0.14
402.404	-0.18
402.759	-0.06
403.115	-0.01
403.47	0.06
403.826	0.16
404.181	0.13
404.536	0.15
404.892	0.19
405.247	0.19
405.602	0.15
405.957	0.17
406.312	0.17
406.667	0.18
407.022	0.14
407.377	0.18
407.732	0.22
408.087	0.31
408.442	0.38
408.796	0.46
409.151	0.48
409.506	0.39
409.86	0.47
410.215	0.47
410.57	0.49
410.924	0.56
411.279	0.55
411.633	0.53
411.987	0.47
412.342	0.42
412.696	0.34
413.05	0.44
413.404	0.51
413.758	0.59
414.113	0.62
414.467	0.55
414.821	0.55
415.175	0.67
415.529	0.71
415.882	0.79
416.236	0.85
416.59	0.83
416.944	0.79
417.298	0.81
417.651	0.8
418.005	0.86
418.358	1.02
418.712	0.98
419.065	0.95
419.419	0.96
419.772	0.92
420.126	0.97
420.479	1.04
420.832	1.03
421.185	1.12
421.539	1.19
421.892	1.14
422.245	1.12
422.598	1.04
422.951	1.11
423.304	1.2
423.657	1.22
424.01	1.15
424.363	1.16
424.715	1.19
425.068	1.26
425.421	1.35
425.773	1.37
426.126	1.39
426.479	1.39
426.831	1.34
427.184	1.37
427.536	1.5
427.889	1.52
428.241	1.57
428.593	1.56
428.945	1.61
429.298	1.54
429.65	1.61
430.002	1.52
430.354	1.47
430.706	1.58
431.058	1.54
431.41	1.56
431.762	1.55
432.114	1.51
432.466	1.54
432.817	1.61
433.169	1.63
433.521	1.62
433.872	1.53
434.224	1.47
434.576	1.5
434.927	1.46
435.279	1.52
435.63	1.47
435.981	1.44
436.333	1.42
436.684	1.37
437.035	1.37
437.387	1.42
437.738	1.33
438.089	1.34
438.44	1.32
438.791	1.31
439.142	1.34
439.493	1.25
439.844	1.27
440.195	1.24
440.545	1.32
440.896	1.33
441.247	1.37
441.598	1.29
441.948	1.28
442.299	1.25
442.649	1.2
443	1.19
443.35	1.22
443.701	1.16
444.051	1.13
444.401	1.14
444.752	1.07
445.102	0.97
445.452	1.01
445.802	0.98
446.152	1.04
446.502	1.17
446.852	1.16
447.202	1.17
447.552	1.17
447.902	1.21
448.252	1.29
448.602	1.76
448.952	1.75
449.301	1.76
449.651	1.83
450.001	1.79
450.35	1.92
450.7	1.97
451.049	1.94
451.399	2.02
451.748	2.02
452.097	1.99
452.447	2.04
452.796	2.01
453.145	2.15
453.494	2.23
453.843	2.25
454.193	2.29
454.542	2.38
454.891	2.32
455.239	2.33
455.588	2.35
455.937	2.41
456.286	2.64
456.635	2.6
456.984	2.63
457.332	2.13
457.681	2.23
458.03	2.2
458.378	2.17
458.727	2.22
459.075	2.18
459.423	2.2
459.772	2.22
460.12	2.18
460.468	2.35
460.817	2.43
461.165	2.5
461.513	2.57
461.861	2.67
462.209	2.67
462.557	2.74
462.905	2.73
463.253	2.78
463.601	2.87
463.949	2.83
464.297	2.83
464.644	2.89
464.992	2.71
465.34	2.76
465.687	2.77
466.035	2.85
466.383	2.76
466.73	2.74
467.078	2.73
467.425	2.67
467.772	2.64
468.12	2.53
468.467	2.65
468.814	2.76
469.161	2.67
469.508	2.63
469.856	2.57
470.203	2.66
470.55	2.46
470.897	2.49
471.243	2.48
471.59	2.47
471.937	2.39
472.284	2.39
472.631	2.3
472.977	2.29
473.324	2.22
473.671	2.21
474.017	2.22
474.364	2.13
474.71	2.03
475.057	2.08
475.403	2.01
475.749	1.99
476.096	2.03
476.442	2.12
476.788	2.06
477.134	2.13
477.48	2.05
477.826	2.03
478.172	2
478.518	2
478.864	1.97
479.21	2.02
479.556	2.03
479.902	2.06
480.248	2.11
480.593	2.14
480.939	2.09
481.285	2.22
481.63	2.27
481.976	2.25
482.321	2.27
482.667	2.31
483.012	2.41
483.357	2.48
483.703	2.58
484.048	2.72
484.393	2.85
484.738	3
485.084	3.07
485.429	3.29
485.774	3.36
486.119	3.53
486.464	3.74
486.808	3.94
487.153	4.16
487.498	4.31
487.843	4.52
488.188	4.76
488.532	5.04
488.877	5.35
489.222	5.66
489.566	6.05
489.911	6.36
490.255	6.69
490.6	7.12
490.944	7.53
491.288	7.86
491.633	8.27
491.977	8.73
492.321	9.15
492.665	9.53
493.009	9.96
493.353	10.34
493.697	10.79
494.041	11.27
494.385	11.77
494.729	12.16
495.073	12.59
495.417	13.08
495.76	13.64
496.104	14.17
496.448	14.71
496.791	15.24
497.135	15.75
497.479	16.27
497.822	16.71
498.165	17.17
498.509	17.73
498.852	18.21
499.196	18.71
499.539	19.23
499.882	19.76
500.225	20.23
500.568	20.65
500.911	21.06
501.254	21.61
501.597	22.06
501.94	22.48
502.283	22.89
502.626	23.38
502.969	23.69
503.312	24.18
503.654	24.55
503.997	24.98
504.34	25.43
504.682	25.9
505.025	26.31
505.367	26.76
505.71	27.08
506.052	27.43
506.395	27.94
506.737	28.29
507.079	28.65
507.421	29.07
507.764	29.49
508.106	29.77
508.448	30.26
508.79	30.59
509.132	30.94
509.474	31.28
509.816	31.55
510.158	31.89
510.499	32.33
510.841	32.55
511.183	32.74
511.525	33.11
511.866	33.34
512.208	33.61
512.549	33.78
512.891	33.87
513.232	34.04
513.574	34.3
513.915	34.41
514.256	34.66
514.598	34.88
514.939	35.09
515.28	35.33
515.621	35.41
515.962	35.57
516.303	35.7
516.644	35.97
516.985	36
517.326	36.16
517.667	36.35
518.008	36.53
518.349	36.61
518.69	36.83
519.03	36.94
519.371	37.21
519.712	37.38
520.052	37.47
520.393	37.66
520.733	37.82
521.074	38.05
521.414	38.26
521.754	38.42
522.095	38.42
522.435	38.6
522.775	38.71
523.115	38.76
523.455	38.71
523.795	38.83
524.135	39.06
524.475	39.25
524.815	39.3
525.155	39.31
525.495	39.46
525.835	39.55
526.175	39.57
526.514	39.68
526.854	39.85
527.194	39.79
527.533	39.84
527.873	39.96
528.212	40.05
528.552	40.17
528.891	40.28
529.23	40.39
529.57	40.37
529.909	40.46
530.248	40.49
530.587	40.64
530.927	40.72
531.266	40.84
531.605	40.86
531.944	40.97
532.283	40.95
532.621	40.87
532.96	40.95
533.299	41.01
533.638	41.09
533.977	41.1
534.315	41.21
534.654	41.33
534.992	41.37
535.331	41.32
535.67	41.45
536.008	41.34
536.346	41.28
536.685	41.31
537.023	41.31
537.361	41.29
537.7	41.31
538.038	41.36
538.376	41.37
538.714	41.41
539.052	41.45
539.39	41.4
539.728	41.53
540.066	41.71
540.404	41.74
540.741	41.81
541.079	41.87
541.417	41.83
541.755	42.03
542.092	42.03
542.43	42.05
542.767	41.96
543.105	41.96
543.442	41.97
543.78	42.06
544.117	42.04
544.454	42.15
544.792	42.13
545.129	42.28
545.466	42.33
545.803	42.44
546.14	42.44
546.477	42.49
546.814	42.58
547.151	42.55
547.488	42.45
547.825	42.5
548.162	42.4
548.499	42.36
548.835	42.43
549.172	42.48
549.509	42.53
549.845	42.52
550.182	42.39
550.518	42.4
550.855	42.45
551.191	42.53
551.528	42.55
551.864	42.57
552.2	42.54
552.537	42.53
552.873	42.62
553.209	42.73
553.545	42.81
553.881	42.76
554.217	42.85
554.553	43
554.889	43.04
555.225	43.14
555.561	43.23
555.896	43.4
556.232	43.37
556.568	43.37
556.903	43.35
557.239	43.34
557.575	43.31
557.91	43.4
558.245	43.58
558.581	43.66
558.916	43.86
559.252	43.89
559.587	43.9
559.922	43.87
560.257	43.92
560.592	43.98
560.928	43.99
561.263	43.96
561.598	44.04
561.933	43.77
562.267	43.94
562.602	43.89
562.937	43.94
563.272	43.98
563.607	43.93
563.941	44.16
564.276	44.1
564.611	44.25
564.945	44.29
565.28	44.59
565.614	44.74
565.949	44.79
566.283	44.87
566.617	44.73
566.951	44.72
567.286	44.8
567.62	44.78
567.954	44.95
568.288	45.07
568.622	45.07
568.956	45.04
569.29	45.09
569.624	45.06
569.958	45.16
570.292	45.29
570.626	45.23
570.959	45.13
571.293	45.16
571.627	45.31
571.96	45.24
572.294	45.05
572.627	45.12
572.961	45.18
573.294	45.22
573.627	45.1
573.961	45.07
574.294	45.19
574.627	45.24
574.961	45.4
575.294	45.53
575.627	45.39
575.96	45.46
576.293	45.29
576.626	45.15
576.959	45.09
577.292	45.16
577.624	45.18
577.957	45.3
578.29	45.3
578.623	45.35
578.955	45.38
579.288	45.54
579.62	45.52
579.953	45.37
580.285	45.43
580.618	45.53
580.95	45.48
581.282	45.42
581.615	45.43
581.947	45.5
582.279	45.45
582.611	45.32
582.943	45.23
583.275	45.16
583.607	45.15
583.939	45.16
584.271	45.15
584.603	45.26
584.935	45.41
585.267	45.55
585.598	45.51
585.93	45.59
586.262	45.59
586.593	45.54
586.925	45.44
587.256	45.47
587.588	45.37
587.919	45.22
588.25	45.34
588.582	45.33
588.913	45.23
589.244	45.26
589.575	45.39
589.907	45.37
590.238	45.29
590.569	45.38
590.9	45.55
591.231	45.66
591.562	45.65
591.892	45.62
592.223	45.79
592.554	45.82
592.885	45.78
593.215	45.74
593.546	45.69
593.877	45.65
594.207	45.6
594.538	45.57
594.868	45.55
595.198	45.5
595.529	45.44
595.859	45.51
596.189	45.68
596.52	45.68
596.85	45.84
597.18	46.04
597.51	46.09
597.84	45.97
598.17	45.98
598.5	45.96
598.83	45.99
599.16	45.92
599.489	45.89
599.819	45.85
600.149	45.8
600.479	45.7
600.808	45.81
601.138	45.91
601.467	45.89
601.797	45.92
602.126	46.02
602.456	45.97
602.785	45.95
603.114	45.95
603.443	46.12
603.773	46.12
604.102	46.09
604.431	46.08
604.76	46.03
605.089	45.87
605.418	45.72
605.747	45.76
606.076	45.7
606.405	45.67
606.733	45.79
607.062	45.85
607.391	45.84
607.72	45.85
608.048	45.84
608.377	45.84
608.705	45.79
609.034	45.64
609.362	45.53
609.69	45.65
610.019	45.71
610.347	45.76
610.675	45.66
611.004	45.77
611.332	45.74
611.66	45.54
611.988	45.48
612.316	45.59
612.644	45.54
612.972	45.39
613.3	45.45
613.627	45.35
613.955	45.22
614.283	45.3
614.611	45.37
614.938	45.19
615.266	45.07
615.593	44.96
615.921	45.01
616.248	45.26
616.576	45.24
616.903	45.42
617.23	45.56
617.558	45.61
617.885	45.66
618.212	45.64
618.539	45.62
618.866	45.69
619.193	45.71
619.52	45.68
619.847	46.1
620.174	46.16
620.501	46.02
620.828	46.19
621.155	46.38
621.481	46.34
621.808	46.6
622.135	46.76
622.461	46.91
622.788	46.61
623.114	46.83
623.441	46.78
623.767	46.97
624.093	46.81
624.42	46.6
624.746	46.79
625.072	46.93
625.398	46.59
625.725	46.73
626.051	46.68
626.377	46.69
626.703	46.73
627.029	46.85
627.354	46.51
627.68	46.51
628.006	46.18
628.332	46.4
628.658	46.23
628.983	45.86
629.309	45.73
629.634	45.72
629.96	45.69
630.285	45.58
630.611	45.22
630.936	45.9
631.262	45.57
631.587	45.39
631.912	45.33
632.237	45.38
632.562	45.52
632.887	45.47
633.213	44.92
633.538	45.33
633.863	45.32
634.187	45.45
634.512	45.44
634.837	45.29
635.162	45.44
635.487	45.97
635.811	46.31
636.136	46.28
636.461	46.25
636.785	46.37
637.11	46.89
637.434	47.5
637.758	48.03
638.083	48.3
638.407	48.24
638.731	48.23
639.056	48.09
639.38	48.58
639.704	49.28
640.028	49.73
640.352	49.82
640.676	49.9
641	49.47
641.324	49.49
641.648	49.47
641.972	49.48
642.295	49.13
642.619	49.13
642.943	48.76
643.266	48.56
643.59	47.85
643.913	47.82
644.237	47.34
644.56	46.86
644.884	46.36
645.207	46.23
645.53	46.2
645.854	46.2
646.177	45.77
646.5	45.7
646.823	45.82
647.146	45.66
647.469	45.03
647.792	44.56
648.115	43.92
648.438	44.33
648.761	45.82
649.084	46.86
649.406	47.64
649.729	46.98
650.052	46.45
650.374	46.12
650.697	45.94
651.019	45.84
651.342	45.78
651.664	45.89
651.987	45.71
652.309	45.97
652.631	46.06
652.953	46.3
653.276	46.31
653.598	46.2
653.92	46.14
654.242	46.19
654.564	46.36
654.886	46.32
655.208	46.52
655.53	46.8
655.851	46.92
656.173	47.22
656.495	47.14
656.816	46.65
657.138	46.04
657.46	45.12
657.781	45.3
658.103	46.63
658.424	48.01
658.746	48.8
659.067	49.68
659.388	49.77
659.709	50.48
660.031	50.87
660.352	50.54
660.673	50.6
660.994	50.62
661.315	50.77
661.636	50.59
661.957	51.37
662.278	51.48
662.599	51.28
662.919	51.47
663.24	51.48
663.561	50.48
663.881	50.46
664.202	49.54
664.523	49.04
664.843	48.4
665.164	48.48
665.484	48.69
665.804	48.39
666.125	47.53
666.445	46.78
666.765	46.96
667.085	47.23
667.405	47.3
667.726	46.95
668.046	46.48
668.366	45.96
668.686	45.91
669.005	46.21
669.325	46.61
669.645	46.79
669.965	45.81
670.285	46.19
670.604	45.86
670.924	46.17
671.243	46.25
671.563	46.78
671.882	46
672.202	45.93
672.521	46.06
672.841	46.48
673.16	46.68
673.479	46.29
673.798	46.26
674.117	46.49
674.437	47.22
674.756	47.26
675.075	46.9
675.394	46.87
675.713	46.37
676.031	47.07
676.35	48.54
676.669	48.41
676.988	47.71
677.306	46.84
677.625	46.96
677.944	47.28
678.262	46.69
678.581	47.28
678.899	47.32
679.218	46.32
679.536	46.31
679.854	46.83
680.172	47.6
680.491	47.46
680.809	46.94
681.127	47.49
681.445	47.52
681.763	47.36
682.081	47.15
682.399	46.86
682.717	46.47
683.035	46.89
683.352	47.1
683.67	47.57
683.988	47.79
684.306	46.59
684.623	46.86
684.941	47.44
685.258	47.53
685.576	47.24
685.893	47.18
686.211	47.3
686.528	46.45
686.845	46.72
687.162	46.96
687.48	47.02
687.797	47.06
688.114	47.09
688.431	47.16
688.748	47.18
689.065	46.65
689.382	47.02
689.699	47.6
690.015	48.14
690.332	48.55
690.649	48.4
690.966	48
691.282	48.11
691.599	48.26
691.915	48.01
692.232	48.04
692.548	48.26
692.865	47.61
693.181	47.42
693.497	47.7
693.813	48.24
694.13	49.48
694.446	50.14
694.762	49.92
695.078	51.09
695.394	50.82
695.71	50.6
696.026	49.66
696.342	49.33
696.658	49.73
696.973	49.63
697.289	49.38
697.605	49.34
697.92	49.73
698.236	48.85
698.551	50.07
698.867	51
699.182	51.99
699.498	51.67
699.813	52.7
700.128	53.68
700.444	53.66
700.759	54.14
701.074	54.21
701.389	53.78
701.704	52.44
702.019	51.45
702.334	52.13
702.649	51.16
702.964	49.84
703.279	49.88
703.594	49.58
703.908	50.38
704.223	50.17
704.538	50.62
704.852	50.1
705.167	49.93
705.481	50.17
705.796	49.29
706.11	50.35
706.425	49.58
706.739	48.92
707.053	48.3
707.368	47.58
707.682	47.62
707.996	47.93
708.31	47.23
708.624	46.39
708.938	47.06
709.252	47.63
709.566	48.02
709.88	47.56
710.193	46.52
710.507	47.39
710.821	47.96
711.135	48.04
711.448	49.61
711.762	50.36
712.075	50.97
712.389	50.59
712.702	50.64
713.015	50.42
713.329	49.66
713.642	50.13
713.955	49.44
714.269	48.91
714.582	48.1
714.895	48.37
715.208	50.11
715.521	49.53
715.834	48.84
716.147	47.46
716.459	49.96
716.772	48.87
717.085	48.8
717.398	48.02
717.71	48.74
718.023	49.09
718.336	48.39
718.648	48.38
718.961	47.66
719.273	47.77
719.585	45.75
719.898	46.2
720.21	45.26
720.522	45.26
720.834	44.92
721.147	45.61
721.459	45.43
721.771	45.09
722.083	44.95
722.395	45.76
722.707	45.26
723.019	44.68
723.33	43.42
723.642	43.34
723.954	43.67
724.265	41.49
724.577	42.13
724.889	41.7
725.2	42.5
725.512	41.2
725.823	42.13
726.135	41.75
726.446	41.37
726.757	42.48
727.068	40.98
727.38	40.14
727.691	40.03
728.002	40.39
728.313	40.57
728.624	41.32
728.935	41.38
729.246	40.9
729.557	40.99
729.867	41.39
730.178	41.49
730.489	41.38
730.8	41.8
731.11	42.92
731.421	43.78
731.731	45.79
732.042	47.12
732.352	46.29
732.663	46.8
732.973	46.88
733.283	47.18
733.594	47.23
733.904	48.1
734.214	48.41
734.524	47.7
734.834	49.44
735.144	51.65
735.454	51.41
735.764	51.94
736.074	51.93
736.384	50.84
736.694	51
737.003	51.1
737.313	51.29
737.623	51.14
737.932	52.2
738.242	53.05
738.551	54.23
738.861	53.41
739.17	52.34
739.479	52.16
739.789	50.38
740.098	51.86
740.407	51.22
740.716	51.92
741.025	53.03
741.334	54.06
741.643	54.3
741.952	55.79
742.261	56.95
742.57	55.38
742.879	53.01
743.188	53.59
743.497	53.19
743.805	55.74
744.114	57.46
744.422	57.65
744.731	59.03
745.04	57.99
745.348	59.06
745.656	57.17
745.965	57.25
746.273	55.65
746.581	58.47
746.889	56.84
747.198	53.49
747.506	55.32
747.814	54.9
748.122	55.54
748.43	55.42
748.738	55.78
749.046	54.48
749.353	53.68
749.661	51.98
749.969	49.53
750.277	49.09
750.584	50.22
750.892	49.2
751.199	49.98
751.507	46.01
751.814	47.3
752.122	47.58
752.429	48.01
752.736	50.36
753.044	49.93
753.351	51.53
753.658	51.71
753.965	50.26
754.272	47.99
754.579	48.1
754.886	49.96
755.193	50.19
755.5	51.75
755.807	52.47
756.114	52.45
756.42	52.73
756.727	53.28
757.034	55.5
757.34	53.22
757.647	54.46
757.953	54.05
758.26	54.15
758.566	53.43
758.872	54.44
759.179	57.86
759.485	56.26
759.791	55.04
760.097	54.4
760.403	55.02
760.709	55.77
761.015	55
761.321	53.79
761.627	52.53
761.933	51.01
762.239	53.05
762.545	52.95
762.851	51.34
763.156	50.29
763.462	51.27
763.767	50.8
764.073	51.59
764.378	49.73
764.684	44.61
764.989	46.93
765.295	47.49
765.6	46.62
765.905	46.19
766.21	51.8
766.515	52.12
766.821	48.6
767.126	49.23
767.431	50.92
767.736	52.39
768.041	50.37
768.345	50.76
768.65	50.97
768.955	47.85
769.26	50.83
769.564	55.73
769.869	54.92
770.174	54.24
770.478	57.77
770.783	54.1
771.087	52.65
771.391	52.82
771.696	52.99
772	63.76
772.304	79.5
772.608	79.62
772.913	87.45
773.217	89.41
773.521	82.1
773.825	72.04
774.129	65.3
774.433	74.34
774.736	76.24
775.04	76.7
775.344	81.47
775.648	78.95
775.951	80.65
776.255	83.27
776.559	88.79
776.862	94.76
777.166	95.89
777.469	101.63
777.772	104.41
778.076	104.7
778.379	111.93
778.682	108.91
778.985	108.5
779.289	111.74
779.592	93.66
779.895	88.99
780.198	100.79
780.501	97.35
780.804	101.15
781.106	112.76
781.409	115.4
781.712	125.73
782.015	114.02
782.317	120.42
782.62	118.39
782.923	107.4
783.225	113.83
783.527	106.57
783.83	94.19
784.132	90.94
784.435	84.56
784.737	77.96
785.039	74.35
785.341	71.13
785.643	62.39
785.945	60.54
786.248	57.63
786.55	62.55
786.851	66.7
787.153	66.96
787.455	61.08
787.757	62.64
788.059	59.47
788.36	48.38
788.662	50.79
788.964	52.89
789.265	52.34
789.567	52.81
789.868	45.44
790.17	45.78
790.471	46.34
790.772	45.46
791.074	44.93
791.375	49.52
791.676	50.7
791.977	56.97
792.278	57.43
792.579	58.45
792.88	64.42
793.181	73.48
793.482	64.05
793.783	71.89
794.083	67.61
794.384	63.08
794.685	76.23
794.986	75.7
795.286	52.01
795.587	54.55
795.887	57.95
796.188	47.19
796.488	51.09
796.788	57.13
797.089	60.35
797.389	59.17
797.689	61.8
797.989	71.79
798.289	68.89
798.589	78.05
798.889	63.26
799.189	69.33
799.489	103.77
799.789	109.51
800.089	110.17
800.389	93.05
800.688	81.43
800.988	102.12
801.288	91.09
801.587	80.4
801.887	60.06
802.186	45.52
802.486	48.2
802.785	84.26
803.085	68.03
803.384	103.41
803.683	90.54
803.982	74.8
804.281	64.84
804.58	69.71
804.879	78.98
805.178	81.75
805.477	85.82
805.776	90.08
806.075	90.03
806.374	120.39
806.673	107.86
806.971	85.34
807.27	114.55
807.569	123.95
807.867	142.25
808.166	113.26
808.464	74.06
808.763	81.54
809.061	163.86
809.359	244.39
809.658	197.34
809.956	223.48
810.254	406.36
810.552	-803.87
810.85	-192.02
811.148	-103.35
811.446	-49.87
811.744	-41.93
812.042	-44.52
812.34	-63.38
812.638	-109.79
812.935	-169.02
813.233	-99.42
813.531	-73.87
813.828	-48.62
814.126	-74.01
814.423	-71.75
814.721	-60.23
815.018	-49.91
815.316	-47.5
815.613	-55.53
815.91	-51.69
816.207	-60.55
816.504	-88.21
816.802	-59.49
817.099	-54.81
817.396	-7.03
817.693	-9.68
817.99	-43.82
818.286	-16.21
818.583	11.32
818.88	-162.25
819.177	612.84
819.473	196.35
819.77	-11.42
820.067	-146.24
820.363	-72.35
820.66	-27.92
820.956	-10.85
821.252	37.48
821.549	34.41
821.845	-1.95
822.141	26.88
822.437	22.29
822.734	22.17
823.03	21.9
823.326	16.59
823.622	-1.46
823.918	-8.92
824.213	4.74
824.509	6.64
824.805	-2.45
825.101	6.06
825.397	-2.05
825.692	0.42
825.988	0.92
826.283	-4.17
826.579	-32.56
826.874	-21.38
827.17	5.6
827.465	-12.28
827.76	-38.68
828.056	-79.78
828.351	-56.97
828.646	-88.27
828.941	-394.6
829.236	449.77
829.531	336.14
829.826	145.41
830.121	183.01
830.416	173.87
830.711	134.51
831.006	111.59
831.3	91.61
831.595	87.14
831.89	88.86
832.184	46.39
832.479	-5.63
832.773	54.37
833.068	-20.47
833.362	-29.47
833.656	3.62
833.951	0.23
834.245	31.04
834.539	23.48
834.833	49.54
835.127	59.04
835.421	53.49
835.715	65.49
836.009	67.06
836.303	122.34
836.597	122.1
836.891	-157.65
837.185	12.15
837.478	82.25
837.772	125.62
838.066	124.59
838.359	167.98
838.653	233.58
838.946	370.74
839.24	971.23
839.533	295.63
839.826	-1343.52
840.119	-945
840.413	1168.1
840.706	162.67
840.999	47.04
841.292	111.02
841.585	125.18
841.878	91.43
842.171	129.62
842.464	229.3
842.757	329.24
843.049	388.76
843.342	-913.14
843.635	-91.84
843.927	-155.18
844.22	-69.05
844.513	-64.78
844.805	-65.88
845.098	11.26
845.39	32.16
845.682	42.85
845.975	41.67
846.267	59.16
846.559	47.3
846.851	63.52
847.143	83.03
847.435	96.98
847.727	119.76
848.019	56.89
848.311	13.51
848.603	-11.38
848.895	-4.74
849.186	-43.93
849.478	-36.83
849.77	-87.3
850.061	-59.53
850.353	-150.29
850.645	307.67
850.936	123.81
851.227	907
851.519	228
851.81	157.87
852.101	132.26
852.393	133.81
852.684	192.8
852.975	282.9
853.266	176.32
853.557	210.06
853.848	194.95
854.139	257.98
854.43	272.33
854.72	311.73
855.011	299.95
855.302	274.83
855.593	311.99
855.883	438.61
856.174	362.29
856.464	367.38
856.755	354.37
857.045	389.79
857.336	375.24
857.626	302.36
857.916	289.75
858.206	388.6
858.497	393.05
858.787	467.36
859.077	1122.93
859.367	6775
859.657	1126.09
859.947	709.27
860.237	389.17
860.527	371.47
860.816	318.03
861.106	285.99
861.396	317.72
861.685	356.09
861.975	328.12
862.265	388.25
862.554	489.93
862.844	357.62
863.133	411.68
863.422	1004.7
863.712	1883.16
864.001	-1283.67
864.29	-1207.14
864.579	-484.32
864.868	-253.76
865.157	-169.44
865.446	-246.79
865.735	-381.52
866.024	-329.21
866.313	-310.56
866.602	-323.53
866.891	-123.69
867.179	-30.48
867.468	-67.02
