Data from T2__Reflection__91__00-59-03-739.txt Node

Date: Sat Jun 05 00:59:03 CEST 2021
User: mabdelazizm
Spectrometer: FLMS18565
Trigger mode: 0
Integration Time (sec): 2.000000E0
Scans to average: 1
Electric dark correction enabled: true
Nonlinearity correction enabled: false
Boxcar width: 12
XAxis mode: Wavelengths
Number of Pixels in Spectrum: 2048
>>>>>Begin Spectral Data<<<<<
179.071	66
179.452	80.78
179.833	84.23
180.214	126.58
180.595	194.26
180.977	589.71
181.358	250.22
181.739	280.71
182.12	172.17
182.501	165.56
182.882	208.88
183.262	296.05
183.643	-493.49
184.024	-47.74
184.405	4.69
184.786	14.65
185.166	44.02
185.547	44.68
185.927	30.4
186.308	31
186.689	41.84
187.069	37.7
187.449	27.23
187.83	22.11
188.21	10.61
188.59	4.85
188.971	3.11
189.351	-3.59
189.731	5.22
190.111	-4.54
190.491	-11.24
190.871	-5.81
191.251	-2.44
191.631	2.5
192.011	-2.69
192.391	0.1
192.771	3.44
193.151	2.45
193.531	-1.52
193.91	-0.11
194.29	1.24
194.67	-2.16
195.049	-6.13
195.429	-5.07
195.808	-8.93
196.188	-11.74
196.567	-10.03
196.946	-8.23
197.326	-5.54
197.705	-4.42
198.084	-1.73
198.464	-1.55
198.843	-1.11
199.222	-1.11
199.601	1.79
199.98	4.02
200.359	5.38
200.738	8.28
201.117	4.18
201.496	4.33
201.875	2.67
202.254	-0.4
202.632	-1.74
203.011	-0.13
203.39	-0.7
203.768	-0.07
204.147	2.39
204.525	1.02
204.904	0.29
205.282	0.87
205.661	-0.48
206.039	-0.71
206.418	-0.94
206.796	0.11
207.174	0.29
207.552	0.11
207.931	-1.05
208.309	-1.02
208.687	-4.36
209.065	-3.74
209.443	-5.64
209.821	-8.53
210.199	-13.1
210.577	-9.51
210.954	-7.08
211.332	-7.65
211.71	-6.63
212.088	-5.59
212.465	-5.72
212.843	-3.82
213.221	-1.39
213.598	-2.66
213.976	-1.83
214.353	-0.4
214.731	0.85
215.108	1.25
215.485	0.18
215.863	-3.65
216.24	-5.94
216.617	-7.01
216.994	-6.16
217.371	-6.2
217.749	-5.14
218.126	-2.71
218.503	-2.96
218.88	-2.83
219.256	-1.61
219.633	0.3
220.01	-0.33
220.387	0.34
220.764	0.32
221.14	-0.4
221.517	0.57
221.894	-0.26
222.27	-0.95
222.647	-1.75
223.023	-1.7
223.4	-0.6
223.776	-1.4
224.153	-2.7
224.529	-1.42
224.905	-0.42
225.282	-0
225.658	0.33
226.034	0.99
226.41	0.84
226.786	1.18
227.162	1.1
227.538	0.78
227.914	0.48
228.29	0.83
228.666	0.38
229.042	0.19
229.418	0.28
229.793	0.13
230.169	0.06
230.545	0.15
230.92	0.07
231.296	0.1
231.672	0.2
232.047	0.05
232.422	-0.13
232.798	-0.24
233.173	-0.19
233.549	0.26
233.924	0.13
234.299	-0.13
234.674	0.02
235.05	0.08
235.425	0.1
235.8	-0.02
236.175	0.07
236.55	0.11
236.925	0.08
237.3	0.11
237.675	0.14
238.049	0.22
238.424	0.25
238.799	0.22
239.174	0.31
239.548	0.38
239.923	0.34
240.297	0.26
240.672	0.34
241.046	0.2
241.421	0.22
241.795	0.23
242.17	0.16
242.544	0.19
242.918	0.04
243.293	-0.03
243.667	-0.07
244.041	-0.04
244.415	-0.05
244.789	-0.1
245.163	-0.06
245.537	-0.07
245.911	-0.09
246.285	-0.07
246.659	-0.1
247.033	-0.06
247.406	-0.09
247.78	-0.1
248.154	-0.1
248.528	-0.14
248.901	-0.1
249.275	-0.07
249.648	-0.09
250.022	-0.16
250.395	-0.12
250.769	-0.16
251.142	-0.09
251.515	-0.04
251.888	-0.01
252.262	0.08
252.635	0.07
253.008	0.06
253.381	0.05
253.754	0.05
254.127	0.07
254.5	0.04
254.873	-0.04
255.246	-0.03
255.619	-0.01
255.992	0.06
256.364	0.02
256.737	0.04
257.11	0.06
257.483	0.1
257.855	0.08
258.228	0.03
258.6	0.03
258.973	0.12
259.345	0.18
259.718	0.19
260.09	0.21
260.462	0.15
260.834	0.15
261.207	0.09
261.579	0.05
261.951	0.09
262.323	0.13
262.695	0.16
263.067	0.13
263.439	0.14
263.811	0.18
264.183	0.25
264.555	0.2
264.927	0.19
265.298	0.17
265.67	0.12
266.042	0.15
266.413	0.13
266.785	0.08
267.156	0.04
267.528	0.01
267.899	-0.03
268.271	-0.12
268.642	-0.16
269.013	-0.18
269.385	-0.21
269.756	-0.21
270.127	-0.2
270.498	-0.21
270.87	-0.22
271.241	-0.21
271.612	-0.24
271.983	-0.23
272.354	-0.19
272.724	-0.24
273.095	-0.21
273.466	-0.25
273.837	-0.2
274.208	-0.2
274.578	-0.23
274.949	-0.21
275.32	-0.22
275.69	-0.23
276.061	-0.2
276.431	-0.12
276.802	-0.08
277.172	-0.08
277.542	-0.03
277.913	-0.01
278.283	0.01
278.653	0.07
279.023	0.13
279.394	0.15
279.764	0.2
280.134	0.2
280.504	0.22
280.874	0.21
281.244	0.18
281.614	0.17
281.983	0.24
282.353	0.17
282.723	0.22
283.093	0.22
283.462	0.2
283.832	0.19
284.202	0.23
284.571	0.19
284.941	0.18
285.31	0.19
285.68	0.18
286.049	0.17
286.418	0.21
286.788	0.25
287.157	0.23
287.526	0.23
287.895	0.16
288.264	0.09
288.633	0.1
289.002	0.05
289.371	-0.01
289.74	-0.02
290.109	0.02
290.478	0.03
290.847	0.02
291.216	-0.03
291.585	-0.03
291.953	-0.07
292.322	-0.07
292.691	-0.05
293.059	-0.07
293.428	-0.07
293.796	-0.08
294.165	-0.08
294.533	-0.12
294.901	-0.15
295.27	-0.17
295.638	-0.22
296.006	-0.26
296.374	-0.27
296.743	-0.26
297.111	-0.24
297.479	-0.18
297.847	-0.24
298.215	-0.18
298.583	-0.13
298.95	-0.13
299.318	-0.13
299.686	-0.15
300.054	-0.16
300.422	-0.14
300.789	-0.12
301.157	-0.13
301.525	-0.14
301.892	-0.16
302.26	-0.15
302.627	-0.16
302.994	-0.13
303.362	-0.13
303.729	-0.12
304.097	-0.1
304.464	-0.06
304.831	-0.05
305.198	-0.07
305.565	-0.07
305.932	-0.15
306.299	-0.17
306.666	-0.14
307.033	-0.15
307.4	-0.17
307.767	-0.14
308.134	-0.19
308.501	-0.18
308.867	-0.15
309.234	-0.11
309.601	-0.06
309.967	-0.09
310.334	-0.08
310.701	-0.07
311.067	-0.07
311.433	-0.05
311.8	-0.07
312.166	-0.1
312.533	-0.09
312.899	-0.11
313.265	-0.15
313.631	-0.2
313.997	-0.18
314.363	-0.2
314.729	-0.27
315.096	-0.23
315.461	-0.2
315.827	-0.28
316.193	-0.26
316.559	-0.29
316.925	-0.29
317.291	-0.26
317.656	-0.31
318.022	-0.37
318.388	-0.41
318.753	-0.48
319.119	-0.44
319.484	-0.44
319.85	-0.43
320.215	-0.43
320.581	-0.43
320.946	-0.41
321.311	-0.39
321.676	-0.42
322.042	-0.41
322.407	-0.39
322.772	-0.29
323.137	-0.31
323.502	-0.31
323.867	-0.23
324.232	-0.24
324.597	-0.21
324.962	-0.16
325.327	-0.21
325.691	-0.16
326.056	-0.19
326.421	-0.19
326.785	-0.2
327.15	-0.19
327.514	-0.23
327.879	-0.23
328.243	-0.29
328.608	-0.27
328.972	-0.33
329.337	-0.34
329.701	-0.35
330.065	-0.43
330.429	-0.48
330.794	-0.5
331.158	-0.46
331.522	-0.5
331.886	-0.58
332.25	-0.61
332.614	-0.62
332.978	-0.73
333.342	-0.67
333.705	-0.71
334.069	-0.75
334.433	-0.68
334.797	-0.7
335.16	-0.66
335.524	-0.66
335.887	-0.64
336.251	-0.64
336.614	-0.59
336.978	-0.63
337.341	-0.61
337.705	-0.69
338.068	-0.6
338.431	-0.57
338.794	-0.58
339.158	-0.49
339.521	-0.48
339.884	-0.44
340.247	-0.48
340.61	-0.45
340.973	-0.46
341.336	-0.48
341.699	-0.43
342.062	-0.38
342.424	-0.41
342.787	-0.45
343.15	-0.48
343.512	-0.53
343.875	-0.52
344.238	-0.55
344.6	-0.56
344.963	-0.54
345.325	-0.56
345.688	-0.59
346.05	-0.57
346.412	-0.56
346.775	-0.54
347.137	-0.59
347.499	-0.6
347.861	-0.56
348.223	-0.64
348.585	-0.57
348.947	-0.56
349.309	-0.52
349.671	-0.52
350.033	-0.51
350.395	-0.52
350.757	-0.5
351.118	-0.53
351.48	-0.54
351.842	-0.51
352.203	-0.49
352.565	-0.49
352.927	-0.54
353.288	-0.54
353.65	-0.55
354.011	-0.59
354.372	-0.49
354.734	-0.51
355.095	-0.51
355.456	-0.56
355.817	-0.57
356.179	-0.59
356.54	-0.65
356.901	-0.72
357.262	-0.68
357.623	-0.75
357.984	-0.73
358.345	-0.78
358.705	-0.81
359.066	-0.8
359.427	-0.74
359.788	-0.77
360.148	-0.66
360.509	-0.59
360.87	-0.58
361.23	-0.49
361.591	-0.45
361.951	-0.43
362.312	-0.46
362.672	-0.41
363.032	-0.39
363.393	-0.41
363.753	-0.36
364.113	-0.41
364.473	-0.37
364.833	-0.35
365.193	-0.32
365.553	-0.26
365.913	-0.28
366.273	-0.24
366.633	-0.22
366.993	-0.27
367.353	-0.24
367.713	-0.21
368.072	-0.21
368.432	-0.19
368.792	-0.22
369.151	-0.31
369.511	-0.35
369.87	-0.36
370.23	-0.34
370.589	-0.36
370.949	-0.4
371.308	-0.41
371.667	-0.43
372.027	-0.38
372.386	-0.42
372.745	-0.47
373.104	-0.43
373.463	-0.39
373.822	-0.36
374.181	-0.39
374.54	-0.36
374.899	-0.3
375.258	-0.32
375.617	-0.33
375.975	-0.36
376.334	-0.38
376.693	-0.38
377.052	-0.41
377.41	-0.48
377.769	-0.46
378.127	-0.45
378.486	-0.45
378.844	-0.41
379.202	-0.49
379.561	-0.46
379.919	-0.44
380.277	-0.49
380.636	-0.51
380.994	-0.63
381.352	-0.66
381.71	-0.69
382.068	-0.61
382.426	-0.67
382.784	-0.65
383.142	-0.63
383.5	-0.61
383.857	-0.65
384.215	-0.69
384.573	-0.71
384.931	-0.71
385.288	-0.7
385.646	-0.7
386.003	-0.68
386.361	-0.66
386.718	-0.68
387.076	-0.61
387.433	-0.56
387.791	-0.57
388.148	-0.54
388.505	-0.59
388.862	-0.61
389.22	-0.49
389.577	-0.52
389.934	-0.46
390.291	-0.47
390.648	-0.38
391.005	-0.43
391.362	-0.37
391.718	-0.34
392.075	-0.32
392.432	-0.41
392.789	-0.34
393.145	-0.27
393.502	-0.23
393.859	-0.25
394.215	-0.23
394.572	-0.19
394.928	-0.2
395.285	-0.25
395.641	-0.21
395.997	-0.22
396.354	-0.29
396.71	-0.3
397.066	-0.32
397.422	-0.27
397.778	-0.27
398.134	-0.33
398.491	-0.33
398.846	-0.31
399.202	-0.25
399.558	-0.29
399.914	-0.37
400.27	-0.35
400.626	-0.39
400.981	-0.47
401.337	-0.41
401.693	-0.48
402.048	-0.53
402.404	-0.55
402.759	-0.5
403.115	-0.47
403.47	-0.46
403.826	-0.46
404.181	-0.41
404.536	-0.47
404.892	-0.51
405.247	-0.53
405.602	-0.6
405.957	-0.61
406.312	-0.58
406.667	-0.54
407.022	-0.56
407.377	-0.53
407.732	-0.53
408.087	-0.51
408.442	-0.53
408.796	-0.55
409.151	-0.53
409.506	-0.59
409.86	-0.58
410.215	-0.56
410.57	-0.54
410.924	-0.56
411.279	-0.61
411.633	-0.55
411.987	-0.59
412.342	-0.64
412.696	-0.66
413.05	-0.62
413.404	-0.55
413.758	-0.37
414.113	-0.34
414.467	-0.26
414.821	-0.17
415.175	-0.14
415.529	-0.12
415.882	-0.12
416.236	-0.01
416.59	0.01
416.944	-0
417.298	0.05
417.651	0.16
418.005	0.14
418.358	0.23
418.712	0.29
419.065	0.24
419.419	0.23
419.772	0.28
420.126	0.26
420.479	0.24
420.832	0.27
421.185	0.32
421.539	0.35
421.892	0.34
422.245	0.34
422.598	0.26
422.951	0.33
423.304	0.37
423.657	0.4
424.01	0.32
424.363	0.3
424.715	0.41
425.068	0.39
425.421	0.4
425.773	0.42
426.126	0.54
426.479	0.6
426.831	0.63
427.184	0.65
427.536	0.68
427.889	0.77
428.241	0.85
428.593	0.89
428.945	0.99
429.298	1.02
429.65	1.07
430.002	0.99
430.354	1
430.706	1
431.058	0.99
431.41	0.95
431.762	0.87
432.114	0.78
432.466	0.71
432.817	0.77
433.169	0.92
433.521	0.92
433.872	0.86
434.224	0.84
434.576	0.95
434.927	0.85
435.279	0.83
435.63	0.75
435.981	0.73
436.333	0.73
436.684	0.68
437.035	0.65
437.387	0.68
437.738	0.68
438.089	0.7
438.44	0.74
438.791	0.81
439.142	0.89
439.493	0.94
439.844	0.92
440.195	0.96
440.545	1.14
440.896	1.19
441.247	1.24
441.598	1.14
441.948	1.06
442.299	0.98
442.649	0.96
443	0.93
443.35	0.85
443.701	0.83
444.051	0.81
444.401	0.89
444.752	0.87
445.102	0.8
445.452	0.79
445.802	0.8
446.152	0.82
446.502	0.93
446.852	0.85
447.202	0.81
447.552	0.75
447.902	0.74
448.252	0.77
448.602	1.22
448.952	1.15
449.301	1.06
449.651	1.07
450.001	1.08
450.35	1.23
450.7	1.22
451.049	1.25
451.399	1.4
451.748	1.45
452.097	1.49
452.447	1.48
452.796	1.47
453.145	1.53
453.494	1.6
453.843	1.62
454.193	1.71
454.542	1.82
454.891	1.84
455.239	1.79
455.588	1.78
455.937	1.78
456.286	1.91
456.635	1.85
456.984	1.86
457.332	1.44
457.681	1.5
458.03	1.53
458.378	1.62
458.727	1.67
459.075	1.68
459.423	1.82
459.772	1.84
460.12	1.78
460.468	1.92
460.817	1.96
461.165	2.04
461.513	2.15
461.861	2.21
462.209	2.22
462.557	2.25
462.905	2.22
463.253	2.2
463.601	2.24
463.949	2.31
464.297	2.41
464.644	2.42
464.992	2.35
465.34	2.45
465.687	2.49
466.035	2.49
466.383	2.46
466.73	2.42
467.078	2.4
467.425	2.36
467.772	2.42
468.12	2.29
468.467	2.3
468.814	2.32
469.161	2.24
469.508	2.23
469.856	2.15
470.203	2.13
470.55	1.97
470.897	1.96
471.243	1.98
471.59	1.91
471.937	1.89
472.284	1.87
472.631	1.72
472.977	1.71
473.324	1.76
473.671	1.74
474.017	1.71
474.364	1.61
474.71	1.58
475.057	1.58
475.403	1.58
475.749	1.61
476.096	1.62
476.442	1.59
476.788	1.55
477.134	1.68
477.48	1.65
477.826	1.63
478.172	1.68
478.518	1.71
478.864	1.79
479.21	1.92
479.556	1.92
479.902	1.94
480.248	2.08
480.593	2.11
480.939	2.11
481.285	2.25
481.63	2.33
481.976	2.32
482.321	2.34
482.667	2.42
483.012	2.56
483.357	2.67
483.703	2.8
484.048	2.94
484.393	3.08
484.738	3.25
485.084	3.47
485.429	3.73
485.774	3.85
486.119	4.06
486.464	4.3
486.808	4.49
487.153	4.75
487.498	4.93
487.843	5.19
488.188	5.6
488.532	5.98
488.877	6.36
489.222	6.74
489.566	7.2
489.911	7.66
490.255	8.12
490.6	8.7
490.944	9.28
491.288	9.78
491.633	10.32
491.977	10.87
492.321	11.48
492.665	12.05
493.009	12.59
493.353	13.18
493.697	13.66
494.041	14.3
494.385	14.97
494.729	15.57
495.073	16.25
495.417	16.94
495.76	17.69
496.104	18.37
496.448	19.03
496.791	19.63
497.135	20.22
497.479	20.84
497.822	21.48
498.165	22.13
498.509	22.78
498.852	23.5
499.196	24.17
499.539	24.85
499.882	25.51
500.225	26.15
500.568	26.78
500.911	27.35
501.254	27.95
501.597	28.57
501.94	29.05
502.283	29.6
502.626	30.18
502.969	30.57
503.312	31.12
503.654	31.56
503.997	32.06
504.34	32.6
504.682	33.09
505.025	33.6
505.367	34.1
505.71	34.63
506.052	35.13
506.395	35.63
506.737	36.04
507.079	36.39
507.421	36.69
507.764	37.1
508.106	37.51
508.448	37.89
508.79	38.19
509.132	38.56
509.474	38.85
509.816	39.16
510.158	39.46
510.499	39.99
510.841	40.36
511.183	40.6
511.525	40.99
511.866	41.3
512.208	41.44
512.549	41.68
512.891	41.84
513.232	42.02
513.574	42.22
513.915	42.53
514.256	42.69
514.598	42.88
514.939	43.14
515.28	43.32
515.621	43.64
515.962	43.8
516.303	44.02
516.644	44.21
516.985	44.4
517.326	44.63
517.667	44.81
518.008	45.09
518.349	45.26
518.69	45.43
519.03	45.54
519.371	45.65
519.712	45.86
520.052	46
520.393	46.11
520.733	46.41
521.074	46.54
521.414	46.61
521.754	46.85
522.095	47.03
522.435	47.16
522.775	47.34
523.115	47.49
523.455	47.44
523.795	47.64
524.135	47.68
524.475	48.04
524.815	48.13
525.155	48.18
525.495	48.32
525.835	48.4
526.175	48.31
526.514	48.37
526.854	48.54
527.194	48.61
527.533	48.59
527.873	48.68
528.212	48.68
528.552	48.87
528.891	49.02
529.23	49.2
529.57	49.35
529.909	49.48
530.248	49.54
530.587	49.69
530.927	49.6
531.266	49.68
531.605	49.78
531.944	50.1
532.283	50.04
532.621	50.16
532.96	50.17
533.299	50.23
533.638	50.27
533.977	50.21
534.315	50.21
534.654	50.35
534.992	50.42
535.331	50.35
535.67	50.45
536.008	50.36
536.346	50.34
536.685	50.54
537.023	50.48
537.361	50.5
537.7	50.49
538.038	50.45
538.376	50.5
538.714	50.61
539.052	50.47
539.39	50.67
539.728	50.74
540.066	50.77
540.404	50.81
540.741	51.02
541.079	51.02
541.417	50.97
541.755	50.97
542.092	50.97
542.43	51.02
542.767	51.04
543.105	51.2
543.442	51.14
543.78	51.14
544.117	51.18
544.454	51.27
544.792	51.33
545.129	51.23
545.466	51.3
545.803	51.38
546.14	51.32
546.477	51.34
546.814	51.48
547.151	51.42
547.488	51.63
547.825	51.54
548.162	51.43
548.499	51.41
548.835	51.25
549.172	51.16
549.509	51.23
549.845	51.23
550.182	51.25
550.518	51.35
550.855	51.35
551.191	51.49
551.528	51.36
551.864	51.39
552.2	51.52
552.537	51.41
552.873	51.6
553.209	51.71
553.545	51.65
553.881	51.51
554.217	51.54
554.553	51.66
554.889	51.75
555.225	51.65
555.561	51.76
555.896	51.74
556.232	51.72
556.568	51.79
556.903	51.8
557.239	51.85
557.575	51.83
557.91	51.84
558.245	52.06
558.581	52.08
558.916	52.13
559.252	52.16
559.587	52.22
559.922	52.26
560.257	52.43
560.592	52.43
560.928	52.67
561.263	52.66
561.598	52.65
561.933	52.72
562.267	52.93
562.602	52.88
562.937	53
563.272	53.07
563.607	53.13
563.941	53.22
564.276	53.2
564.611	53.37
564.945	53.59
565.28	53.92
565.614	54.11
565.949	54.21
566.283	54.31
566.617	54.27
566.951	54.35
567.286	54.42
567.62	54.57
567.954	54.71
568.288	54.77
568.622	54.73
568.956	54.7
569.29	54.6
569.624	54.55
569.958	54.66
570.292	54.66
570.626	54.67
570.959	54.68
571.293	54.71
571.627	54.83
571.96	54.81
572.294	54.71
572.627	54.72
572.961	54.72
573.294	54.73
573.627	54.56
573.961	54.55
574.294	54.63
574.627	54.65
574.961	54.82
575.294	54.85
575.627	54.83
575.96	54.94
576.293	54.81
576.626	54.88
576.959	54.86
577.292	54.92
577.624	54.94
577.957	55.02
578.29	54.99
578.623	55.15
578.955	55.19
579.288	55.26
579.62	55.22
579.953	55.09
580.285	55.21
580.618	55.36
580.95	55.41
581.282	55.43
581.615	55.42
581.947	55.44
582.279	55.41
582.611	55.35
582.943	55.33
583.275	55.25
583.607	55.26
583.939	55.3
584.271	55.22
584.603	55.34
584.935	55.23
585.267	55.24
585.598	55.3
585.93	55.35
586.262	55.4
586.593	55.45
586.925	55.36
587.256	55.28
587.588	55.18
587.919	55.16
588.25	55.24
588.582	55.18
588.913	55
589.244	54.93
589.575	54.92
589.907	54.95
590.238	55.14
590.569	55.17
590.9	55.24
591.231	55.46
591.562	55.33
591.892	55.42
592.223	55.51
592.554	55.56
592.885	55.43
593.215	55.4
593.546	55.53
593.877	55.58
594.207	55.51
594.538	55.47
594.868	55.36
595.198	55.24
595.529	55.31
595.859	55.35
596.189	55.4
596.52	55.4
596.85	55.44
597.18	55.66
597.51	55.82
597.84	55.79
598.17	55.69
598.5	55.6
598.83	55.67
599.16	55.76
599.489	55.64
599.819	55.83
600.149	55.6
600.479	55.51
600.808	55.42
601.138	55.35
601.467	55.41
601.797	55.28
602.126	55.11
602.456	55.35
602.785	55.42
603.114	55.42
603.443	55.5
603.773	55.56
604.102	55.57
604.431	55.54
604.76	55.6
605.089	55.55
605.418	55.37
605.747	55.34
606.076	55.45
606.405	55.49
606.733	55.3
607.062	55.31
607.391	55.14
607.72	55.14
608.048	55.05
608.377	55.03
608.705	55.03
609.034	55.01
609.362	55.05
609.69	55.18
610.019	55.28
610.347	55.44
610.675	55.26
611.004	55.12
611.332	55.17
611.66	55.2
611.988	55.02
612.316	55.06
612.644	54.95
612.972	54.81
613.3	54.81
613.627	54.8
613.955	54.76
614.283	54.72
614.611	54.83
614.938	55.15
615.266	55
615.593	54.95
615.921	54.83
616.248	54.75
616.576	54.9
616.903	54.94
617.23	55.1
617.558	55.22
617.885	55.14
618.212	55.14
618.539	55.03
618.866	54.72
619.193	54.86
619.52	54.81
619.847	54.95
620.174	55.17
620.501	55.45
620.828	55.56
621.155	55.39
621.481	55.4
621.808	55.4
622.135	55.33
622.461	55.45
622.788	55.21
623.114	55.28
623.441	55.43
623.767	55.67
624.093	55.5
624.42	55.34
624.746	55.76
625.072	55.7
625.398	55.53
625.725	55.75
626.051	55.69
626.377	55.45
626.703	55.35
627.029	55.57
627.354	55.25
627.68	55.2
628.006	55.31
628.332	54.97
628.658	54.39
628.983	54.21
629.309	54.63
629.634	54.79
629.96	54.99
630.285	55
630.611	54.64
630.936	54.79
631.262	54.45
631.587	53.84
631.912	54.15
632.237	54.41
632.562	54.84
632.887	54.15
633.213	54.01
633.538	53.9
633.863	53.31
634.187	53.35
634.512	53.38
634.837	53.48
635.162	53.37
635.487	53.39
635.811	53.44
636.136	53.3
636.461	53.38
636.785	53.55
637.11	54.48
637.434	54.46
637.758	54.08
638.083	54.5
638.407	54.17
638.731	54.09
639.056	54.34
639.38	53.95
639.704	54.56
640.028	53.89
640.352	53.8
640.676	53.9
641	54.37
641.324	54.85
641.648	54.96
641.972	54.98
642.295	55.1
642.619	54.83
642.943	54.25
643.266	54.51
643.59	54.05
643.913	54.43
644.237	54.39
644.56	54.49
644.884	54.08
645.207	53.5
645.53	53.69
645.854	53.89
646.177	53.4
646.5	53.59
646.823	53.62
647.146	53.49
647.469	53.5
647.792	53.01
648.115	52.82
648.438	53.22
648.761	54.6
649.084	56.09
649.406	56.32
649.729	55.8
650.052	55.54
650.374	55.11
650.697	55.12
651.019	55.2
651.342	55.07
651.664	55.34
651.987	55.19
652.309	55.28
652.631	55.15
652.953	55.34
653.276	55.19
653.598	55
653.92	55.09
654.242	55.18
654.564	55.32
654.886	55.51
655.208	55.45
655.53	55.68
655.851	55.71
656.173	55.95
656.495	55.79
656.816	55.16
657.138	54.27
657.46	53.46
657.781	53.57
658.103	54.4
658.424	55.82
658.746	56.14
659.067	56.67
659.388	57.01
659.709	56.88
660.031	56.68
660.352	56.33
660.673	56.91
660.994	56.61
661.315	57.08
661.636	57.58
661.957	57.69
662.278	57.72
662.599	57.35
662.919	56.71
663.24	56.85
663.561	55.74
663.881	56.14
664.202	55.33
664.523	55.84
664.843	54.91
665.164	53.91
665.484	53.17
665.804	52.89
666.125	52.91
666.445	51.76
666.765	52.03
667.085	51.78
667.405	51.89
667.726	51.88
668.046	52.16
668.366	51.89
668.686	51.23
669.005	51.26
669.325	51.32
669.645	51.8
669.965	51.33
670.285	50.54
670.604	50.6
670.924	50.98
671.243	50.46
671.563	51.24
671.882	51.14
672.202	51.15
672.521	50.65
672.841	51.17
673.16	52.07
673.479	52.45
673.798	52.64
674.117	51.81
674.437	52.48
674.756	52.52
675.075	52.79
675.394	52.91
675.713	52.89
676.031	53.35
676.35	54
676.669	54.05
676.988	53.85
677.306	54.07
677.625	54.01
677.944	54.18
678.262	54.04
678.581	54.11
678.899	53.55
679.218	53.52
679.536	53.82
679.854	53.49
680.172	53.71
680.491	53.76
680.809	52.97
681.127	53.12
681.445	53.07
681.763	52.31
682.081	52.69
682.399	52.84
682.717	52.81
683.035	52.61
683.352	52.32
683.67	52.39
683.988	52.51
684.306	52.06
684.623	53.08
684.941	53.81
685.258	53.04
685.576	52.54
685.893	52.84
686.211	53.94
686.528	54.36
686.845	55.02
687.162	55.34
687.48	54.86
687.797	55.61
688.114	55.42
688.431	54.95
688.748	56.1
689.065	55.6
689.382	55.56
689.699	56.21
690.015	56.3
690.332	56.42
690.649	56.03
690.966	55.54
691.282	56.17
691.599	56.17
691.915	55.84
692.232	55.57
692.548	54.6
692.865	54.44
693.181	55.3
693.497	56.52
693.813	56.97
694.13	57.45
694.446	56.69
694.762	56.5
695.078	57.27
695.394	57.58
695.71	57.54
696.026	57.2
696.342	58.35
696.658	58.23
696.973	58.49
697.289	58.69
697.605	58.67
697.92	58.94
698.236	58.68
698.551	59.58
698.867	61.24
699.182	61.79
699.498	61.76
699.813	62.01
700.128	63.38
700.444	63.89
700.759	63.36
701.074	62.15
701.389	60.74
701.704	60.05
702.019	58.77
702.334	59.3
702.649	59.27
702.964	58.41
703.279	58.27
703.594	57.12
703.908	57.65
704.223	56.95
704.538	57.03
704.852	56.44
705.167	56.08
705.481	55.54
705.796	54.09
706.11	54.79
706.425	54.66
706.739	54.04
707.053	53.69
707.368	53.83
707.682	54.03
707.996	54.13
708.31	53.84
708.624	53.31
708.938	54.43
709.252	54.8
709.566	54.74
709.88	54.63
710.193	53.78
710.507	53.09
710.821	54.32
711.135	54.39
711.448	54.58
711.762	54.99
712.075	55.09
712.389	55.39
712.702	55.96
713.015	56.09
713.329	57.26
713.642	59.19
713.955	59.23
714.269	59.48
714.582	59.06
714.895	58.62
715.208	60.52
715.521	60.5
715.834	60.03
716.147	60.39
716.459	61.52
716.772	60.39
717.085	60.95
717.398	60.49
717.71	61.28
718.023	61
718.336	61.66
718.648	61.78
718.961	61.42
719.273	62.79
719.585	63.47
719.898	63.01
720.21	62.31
720.522	61.8
720.834	62.45
721.147	62.03
721.459	61.37
721.771	61.54
722.083	61.02
722.395	59.9
722.707	59.49
723.019	57.21
723.33	56.72
723.642	56.27
723.954	56.58
724.265	55.3
724.577	55.72
724.889	56.51
725.2	57.12
725.512	56.14
725.823	57.23
726.135	56.58
726.446	56.38
726.757	57.48
727.068	56.12
727.38	55.95
727.691	56.44
728.002	57.04
728.313	57.1
728.624	56.34
728.935	56.43
729.246	56.16
729.557	55.77
729.867	57.01
730.178	58.42
730.489	59.23
730.8	59.52
731.11	59.11
731.421	59.67
731.731	59.98
732.042	61.54
732.352	61.22
732.663	60.09
732.973	60.11
733.283	60.2
733.594	60.96
733.904	61.35
734.214	60.97
734.524	60.85
734.834	62.42
735.144	62.34
735.454	61.43
735.764	62.32
736.074	62.01
736.384	62.51
736.694	62.79
737.003	61.64
737.313	61.3
737.623	58.92
737.932	58.57
738.242	58.11
738.551	57.69
738.861	58.25
739.17	55.98
739.479	54.99
739.789	53.22
740.098	54.42
740.407	55
740.716	54.93
741.025	55.34
741.334	52.85
741.643	52.73
741.952	53.43
742.261	50.93
742.57	50.25
742.879	48.64
743.188	50.48
743.497	49.38
743.805	49.58
744.114	50.59
744.422	50.09
744.731	53.15
745.04	52.12
745.348	53.03
745.656	53.55
745.965	52.91
746.273	55.09
746.581	57.42
746.889	58.54
747.198	58.8
747.506	58.51
747.814	56.91
748.122	54.82
748.43	53.7
748.738	54.99
749.046	55.26
749.353	56.99
749.661	55.32
749.969	57.82
750.277	56.09
750.584	56.17
750.892	52.48
751.199	52.39
751.507	51.82
751.814	51.85
752.122	52.15
752.429	53.16
752.736	54.82
753.044	55.11
753.351	56.89
753.658	55.9
753.965	55.25
754.272	52.73
754.579	52.29
754.886	51.99
755.193	53.77
755.5	55.31
755.807	56.01
756.114	56.36
756.42	55.78
756.727	57.13
757.034	55.17
757.34	54.11
757.647	53.39
757.953	53.45
758.26	55.27
758.566	56.74
758.872	55.79
759.179	56.49
759.485	54.65
759.791	53.2
760.097	51.41
760.403	52.5
760.709	52.25
761.015	48.35
761.321	49.24
761.627	47.43
761.933	48.04
762.239	48.5
762.545	48.99
762.851	46.22
763.156	44.27
763.462	43.98
763.767	44.17
764.073	44.24
764.378	41.25
764.684	41.33
764.989	41.56
765.295	41.53
765.6	42.67
765.905	42.17
766.21	45.88
766.515	47.09
766.821	46.87
767.126	48.79
767.431	49.02
767.736	50.6
768.041	46.89
768.345	48.63
768.65	47.94
768.955	45.91
769.26	42.89
769.564	46.22
769.869	40.88
770.174	40.78
770.478	43.79
770.783	45.24
771.087	48.01
771.391	47.93
771.696	48.06
772	58.18
772.304	72.51
772.608	72.53
772.913	79.99
773.217	79.13
773.521	75.47
773.825	72.08
774.129	65.98
774.433	64.81
774.736	62.15
775.04	62.21
775.344	53.92
775.648	54.7
775.951	46
776.255	48.15
776.559	56.44
776.862	66.69
777.166	61.89
777.469	77.9
777.772	81.87
778.076	80.36
778.379	84.58
778.682	79.27
778.985	77.67
779.289	75.86
779.592	60.94
779.895	51.5
780.198	56.93
780.501	48.78
780.804	54.88
781.106	52.76
781.409	47.63
781.712	49.46
782.015	53.18
782.317	52.43
782.62	56.6
782.923	57.13
783.225	53.1
783.527	54.3
783.83	57.32
784.132	54.28
784.435	53.4
784.737	47.01
785.039	42.98
785.341	39.31
785.643	28.57
785.945	22.34
786.248	18.51
786.55	20.99
786.851	20.45
787.153	27.02
787.455	26.62
787.757	30.79
788.059	30.18
788.36	11.67
788.662	19.86
788.964	22.56
789.265	28.15
789.567	21.13
789.868	20.41
790.17	13.74
790.471	19.61
790.772	19.42
791.074	18.85
791.375	16.98
791.676	11.64
791.977	9.14
792.278	8.23
792.579	14.35
792.88	10.28
793.181	15.8
793.482	-0.33
793.783	16.69
794.083	7.61
794.384	22.15
794.685	23.89
794.986	15.45
795.286	2.26
795.587	-6.96
795.887	3.87
796.188	-9.68
796.488	-5.36
796.788	-8.91
797.089	1.85
797.389	-9.17
797.689	10.87
797.989	5.66
798.289	13.22
798.589	53.82
798.889	31.03
799.189	27.93
799.489	-8.84
799.789	15.75
800.089	-15.59
800.389	-4.25
800.688	-5.96
800.988	24.34
801.288	-0.51
801.587	4.47
801.887	-11.13
802.186	-30.31
802.486	-25.77
802.785	-55.17
803.085	5.09
803.384	43.92
803.683	36.8
803.982	26.51
804.281	7.57
804.58	-1.14
804.879	0.86
805.178	-2.4
805.477	-5.81
805.776	12.03
806.075	-17.21
806.374	-14.11
806.673	-12.05
806.971	17.62
807.27	2.55
807.569	-22.14
807.867	-47.61
808.166	-24.42
808.464	-16.56
808.763	-13.96
809.061	29.25
809.359	43.98
809.658	30.68
809.956	56.44
810.254	125.3
810.552	-89.79
810.85	73.43
811.148	57.05
811.446	26.15
811.744	5.73
812.042	-30.96
812.34	-45.54
812.638	-58.95
812.935	-89.52
813.233	-39.91
813.531	-28.91
813.828	-26.67
814.126	-37.58
814.423	-25.55
814.721	-31.97
815.018	-35.59
815.316	-37.03
815.613	-40.82
815.91	-46.93
816.207	-47.37
816.504	-68.35
816.802	-59
817.099	-52.16
817.396	-29.72
817.693	-11.07
817.99	-38.28
818.286	-16.63
818.583	-37.56
818.88	94.61
819.177	-119.59
819.473	-310.39
819.77	-533.64
820.067	-580.75
820.363	-279.29
820.66	-175.13
820.956	-184.23
821.252	-126.4
821.549	-93.76
821.845	-56.98
822.141	-36.04
822.437	-25.37
822.734	-25.77
823.03	-47.62
823.326	-68.53
823.622	-61.91
823.918	-78.47
824.213	-66.62
824.509	-63.55
824.805	-79.47
825.101	-69.26
825.397	-106.09
825.692	-110.3
825.988	-111.3
826.283	-106.74
826.579	-102.6
826.874	-85.43
827.17	-62.26
827.465	-52.77
827.76	-82.44
828.056	-97.61
828.351	-71.17
828.646	-136.11
828.941	-569.8
829.236	875
829.531	496.8
829.826	242.54
830.121	329.01
830.416	249.08
830.711	194.24
831.006	268.73
831.3	291.94
831.595	240.89
831.89	352.15
832.184	265.56
832.479	343.59
832.773	260.2
833.068	129.7
833.362	76.49
833.656	85.9
833.951	109.59
834.245	98.16
834.539	75
834.833	104.43
835.127	134.28
835.421	143.22
835.715	121.75
836.009	98.63
836.303	98.67
836.597	204.03
836.891	-539.29
837.185	-79.15
837.478	-51.94
837.772	36.41
838.066	64.59
838.359	64.47
838.653	14.05
838.946	-0.18
839.24	-128.77
839.533	-48.81
839.826	1482.41
840.119	1235
840.413	-1518.1
840.706	-794.86
840.999	-99.77
841.292	-198.91
841.585	-52.08
841.878	-171.01
842.171	4.41
842.464	17.99
842.757	60.88
843.049	63.36
843.342	258.05
843.635	103.35
843.927	68.45
844.22	45.98
844.513	66.87
844.805	134.37
845.098	125.57
845.39	121.91
845.682	121.17
845.975	103.39
846.267	87.71
846.559	41.03
846.851	54.3
847.143	23.42
847.435	26.08
847.727	57.22
848.019	-1.92
848.311	-21.48
848.603	-96.91
848.895	-62.94
849.186	-133.23
849.478	-118.91
849.77	-161.13
850.061	-137.95
850.353	-275.57
850.645	506.68
850.936	165.1
851.227	1663
851.519	248.73
851.81	193.07
852.101	218.01
852.393	147.95
852.684	167.29
852.975	275.91
853.266	168.6
853.557	175.74
853.848	111.22
854.139	158.45
854.43	136.25
854.72	125.11
855.011	149.62
855.302	160.23
855.593	185.75
855.883	241.76
856.174	200.42
856.464	181
856.755	152.32
857.045	133.63
857.336	140.77
857.626	129.53
857.916	97.59
858.206	109.76
858.497	94.95
858.787	116.86
859.077	270.87
859.367	1046.43
859.657	285.95
859.947	155.75
860.237	65.03
860.527	79
860.816	59.68
861.106	90.01
861.396	84.88
861.685	123.71
861.975	128.93
862.265	99.61
862.554	28.85
862.844	-32.87
863.133	-111.9
863.422	-214.11
863.712	-343.37
864.001	224.33
864.29	-45.24
864.579	36.02
864.868	61.93
865.157	44.25
865.446	3.21
865.735	1.71
866.024	42.37
866.313	58.96
866.602	76.47
866.891	96.83
867.179	78.55
867.468	53.83
