Data from T2_Reflection__125__20-18-26-111.txt Node

Date: Fri Jun 04 20:18:26 CEST 2021
User: mabdelazizm
Spectrometer: FLMS18565
Trigger mode: 0
Integration Time (sec): 2.000000E0
Scans to average: 1
Electric dark correction enabled: true
Nonlinearity correction enabled: false
Boxcar width: 12
XAxis mode: Wavelengths
Number of Pixels in Spectrum: 2048
>>>>>Begin Spectral Data<<<<<
179.071	-159.05
179.452	-109.1
179.833	-293.76
180.214	-330.77
180.595	-239.05
180.977	-383.65
181.358	-363.53
181.739	-351.4
182.12	-258.83
182.501	-263.64
182.882	-271.53
183.262	-940
183.643	-194.77
184.024	-135.89
184.405	-56.17
184.786	-18.3
185.166	-26.98
185.547	-14.76
185.927	-5.61
186.308	-7.19
186.689	0.1
187.069	-3.84
187.449	-7.96
187.83	-17.8
188.21	-19.02
188.59	-13.59
188.971	-13.28
189.351	-7.79
189.731	-4.67
190.111	-10.29
190.491	-14.68
190.871	-15.06
191.251	-9.24
191.631	-7
192.011	-9.71
192.391	-9.28
192.771	-7.71
193.151	-8.73
193.531	-4.16
193.91	-4.06
194.29	-4.26
194.67	0.26
195.049	-3.75
195.429	-3.4
195.808	-6.06
196.188	-7.76
196.567	-7.53
196.946	-3.56
197.326	-1.89
197.705	2.46
198.084	1.28
198.464	-2.03
198.843	-0.95
199.222	-0.92
199.601	-1.2
199.98	0.21
200.359	0.67
200.738	0.98
201.117	-1.97
201.496	-3.49
201.875	-2.97
202.254	-2.72
202.632	-2.94
203.011	-2.4
203.39	-3.22
203.768	-3.54
204.147	-4.45
204.525	-3.01
204.904	-5.09
205.282	-1.38
205.661	-1.96
206.039	-1.18
206.418	-3.74
206.796	-2.5
207.174	-3.37
207.552	-3.9
207.931	-3.14
208.309	-3.34
208.687	-3.09
209.065	1.22
209.443	-0.25
209.821	-0.7
210.199	-3.39
210.577	-1.82
210.954	2.1
211.332	1.04
211.71	-0.66
212.088	1.42
212.465	0.28
212.843	1.09
213.221	2.75
213.598	2.79
213.976	1.5
214.353	-0.35
214.731	-3.82
215.108	-2.98
215.485	-3.54
215.863	-5.16
216.24	-6.4
216.617	-7.1
216.994	-6.54
217.371	-5.03
217.749	-6.28
218.126	-5.86
218.503	-7.61
218.88	-7.21
219.256	-7.21
219.633	-7.67
220.01	-7.45
220.387	-6.65
220.764	-6.46
221.14	-5.04
221.517	-5.04
221.894	-5.55
222.27	-4.96
222.647	-5.43
223.023	-5.31
223.4	-5.12
223.776	-3.82
224.153	-3.66
224.529	-3.09
224.905	-2.64
225.282	-1.79
225.658	-1.22
226.034	-1.24
226.41	-1.09
226.786	-1.25
227.162	-0.63
227.538	-0.93
227.914	-0.87
228.29	-0.64
228.666	-0.34
229.042	0.11
229.418	0.17
229.793	-0.36
230.169	-0.25
230.545	-0.58
230.92	-0.78
231.296	-0.55
231.672	-0.69
232.047	-0.63
232.422	-0.69
232.798	-0.48
233.173	-0.52
233.549	-0.39
233.924	-0.37
234.299	-0.38
234.674	-0.52
235.05	-0.71
235.425	-0.71
235.8	-0.69
236.175	-0.59
236.55	-0.64
236.925	-0.6
237.3	-0.51
237.675	-0.44
238.049	-0.54
238.424	-0.6
238.799	-0.52
239.174	-0.36
239.548	-0.33
239.923	-0.24
240.297	-0.27
240.672	-0.22
241.046	-0.17
241.421	-0.16
241.795	-0.2
242.17	-0.21
242.544	-0.09
242.918	-0.11
243.293	-0.12
243.667	-0.17
244.041	-0.08
244.415	-0.03
244.789	-0
245.163	0
245.537	0.02
245.911	0.08
246.285	0.08
246.659	0.06
247.033	0.07
247.406	0.18
247.78	0.22
248.154	0.2
248.528	0.2
248.901	0.2
249.275	0.19
249.648	0.33
250.022	0.27
250.395	0.2
250.769	0.19
251.142	0.26
251.515	0.25
251.888	0.23
252.262	0.29
252.635	0.3
253.008	0.33
253.381	0.31
253.754	0.28
254.127	0.32
254.5	0.33
254.873	0.25
255.246	0.22
255.619	0.25
255.992	0.31
256.364	0.3
256.737	0.25
257.11	0.25
257.483	0.25
257.855	0.28
258.228	0.29
258.6	0.31
258.973	0.32
259.345	0.4
259.718	0.42
260.09	0.4
260.462	0.37
260.834	0.37
261.207	0.37
261.579	0.32
261.951	0.29
262.323	0.23
262.695	0.27
263.067	0.35
263.439	0.37
263.811	0.38
264.183	0.41
264.555	0.41
264.927	0.4
265.298	0.32
265.67	0.28
266.042	0.27
266.413	0.24
266.785	0.23
267.156	0.21
267.528	0.18
267.899	0.16
268.271	0.09
268.642	-0.02
269.013	0.01
269.385	0.05
269.756	0.09
270.127	0.03
270.498	0.01
270.87	0.03
271.241	0.02
271.612	0.05
271.983	0.04
272.354	-0.05
272.724	-0.1
273.095	-0.08
273.466	-0.1
273.837	-0.07
274.208	-0.05
274.578	-0.01
274.949	0.06
275.32	0.09
275.69	0.07
276.061	0.06
276.431	0.01
276.802	0
277.172	0.02
277.542	0.03
277.913	0.07
278.283	0.05
278.653	0.06
279.023	0
279.394	0.1
279.764	0.11
280.134	0.09
280.504	0.12
280.874	0.11
281.244	0.08
281.614	0.12
281.983	0.07
282.353	0.09
282.723	0.14
283.093	0.12
283.462	0.1
283.832	0.12
284.202	0.1
284.571	0.07
284.941	0.1
285.31	0.14
285.68	0.19
286.049	0.17
286.418	0.18
286.788	0.23
287.157	0.22
287.526	0.23
287.895	0.2
288.264	0.22
288.633	0.16
289.002	0.1
289.371	0.15
289.74	0.11
290.109	0.11
290.478	0.11
290.847	0.16
291.216	0.18
291.585	0.09
291.953	0.03
292.322	-0.01
292.691	-0.04
293.059	-0.1
293.428	-0.13
293.796	-0.13
294.165	-0.14
294.533	-0.21
294.901	-0.22
295.27	-0.19
295.638	-0.23
296.006	-0.35
296.374	-0.38
296.743	-0.4
297.111	-0.41
297.479	-0.41
297.847	-0.42
298.215	-0.39
298.583	-0.43
298.95	-0.41
299.318	-0.35
299.686	-0.4
300.054	-0.41
300.422	-0.4
300.789	-0.37
301.157	-0.36
301.525	-0.3
301.892	-0.29
302.26	-0.28
302.627	-0.22
302.994	-0.26
303.362	-0.23
303.729	-0.19
304.097	-0.24
304.464	-0.29
304.831	-0.24
305.198	-0.21
305.565	-0.16
305.932	-0.15
306.299	-0.15
306.666	-0.19
307.033	-0.21
307.4	-0.18
307.767	-0.21
308.134	-0.21
308.501	-0.22
308.867	-0.19
309.234	-0.19
309.601	-0.18
309.967	-0.19
310.334	-0.16
310.701	-0.19
311.067	-0.21
311.433	-0.18
311.8	-0.23
312.166	-0.2
312.533	-0.22
312.899	-0.24
313.265	-0.19
313.631	-0.12
313.997	-0.15
314.363	-0.15
314.729	-0.16
315.096	-0.14
315.461	-0.13
315.827	-0.08
316.193	-0.03
316.559	-0.03
316.925	-0.01
317.291	-0
317.656	0.02
318.022	-0
318.388	0
318.753	-0.05
319.119	-0.03
319.484	0
319.85	-0.02
320.215	-0.01
320.581	-0.04
320.946	-0.09
321.311	-0.1
321.676	-0.13
322.042	-0.14
322.407	-0.15
322.772	-0.12
323.137	-0.09
323.502	-0.02
323.867	-0
324.232	-0.12
324.597	-0.13
324.962	-0.1
325.327	-0.13
325.691	-0.15
326.056	-0.13
326.421	-0.15
326.785	-0.15
327.15	-0.17
327.514	-0.21
327.879	-0.17
328.243	-0.2
328.608	-0.25
328.972	-0.23
329.337	-0.28
329.701	-0.29
330.065	-0.22
330.429	-0.21
330.794	-0.17
331.158	-0.14
331.522	-0.2
331.886	-0.27
332.25	-0.32
332.614	-0.36
332.978	-0.42
333.342	-0.32
333.705	-0.36
334.069	-0.4
334.433	-0.42
334.797	-0.4
335.16	-0.44
335.524	-0.44
335.887	-0.49
336.251	-0.49
336.614	-0.48
336.978	-0.45
337.341	-0.44
337.705	-0.42
338.068	-0.35
338.431	-0.28
338.794	-0.33
339.158	-0.36
339.521	-0.39
339.884	-0.41
340.247	-0.42
340.61	-0.38
340.973	-0.32
341.336	-0.33
341.699	-0.4
342.062	-0.37
342.424	-0.42
342.787	-0.42
343.15	-0.47
343.512	-0.45
343.875	-0.43
344.238	-0.38
344.6	-0.38
344.963	-0.35
345.325	-0.36
345.688	-0.39
346.05	-0.45
346.412	-0.42
346.775	-0.43
347.137	-0.52
347.499	-0.54
347.861	-0.47
348.223	-0.46
348.585	-0.46
348.947	-0.45
349.309	-0.47
349.671	-0.44
350.033	-0.5
350.395	-0.41
350.757	-0.41
351.118	-0.43
351.48	-0.44
351.842	-0.37
352.203	-0.29
352.565	-0.3
352.927	-0.31
353.288	-0.34
353.65	-0.41
354.011	-0.41
354.372	-0.36
354.734	-0.32
355.095	-0.28
355.456	-0.31
355.817	-0.34
356.179	-0.29
356.54	-0.29
356.901	-0.35
357.262	-0.38
357.623	-0.41
357.984	-0.36
358.345	-0.32
358.705	-0.38
359.066	-0.41
359.427	-0.44
359.788	-0.41
360.148	-0.41
360.509	-0.36
360.87	-0.37
361.23	-0.4
361.591	-0.41
361.951	-0.44
362.312	-0.45
362.672	-0.41
363.032	-0.42
363.393	-0.45
363.753	-0.54
364.113	-0.57
364.473	-0.56
364.833	-0.52
365.193	-0.58
365.553	-0.59
365.913	-0.62
366.273	-0.63
366.633	-0.6
366.993	-0.69
367.353	-0.8
367.713	-0.75
368.072	-0.75
368.432	-0.76
368.792	-0.78
369.151	-0.82
369.511	-0.77
369.87	-0.88
370.23	-0.84
370.589	-0.8
370.949	-0.82
371.308	-0.86
371.667	-0.85
372.027	-0.83
372.386	-0.83
372.745	-0.79
373.104	-0.78
373.463	-0.79
373.822	-0.83
374.181	-0.78
374.54	-0.75
374.899	-0.6
375.258	-0.61
375.617	-0.57
375.975	-0.5
376.334	-0.46
376.693	-0.45
377.052	-0.37
377.41	-0.41
377.769	-0.4
378.127	-0.36
378.486	-0.4
378.844	-0.37
379.202	-0.42
379.561	-0.52
379.919	-0.47
380.277	-0.45
380.636	-0.49
380.994	-0.56
381.352	-0.6
381.71	-0.6
382.068	-0.58
382.426	-0.59
382.784	-0.54
383.142	-0.55
383.5	-0.52
383.857	-0.55
384.215	-0.53
384.573	-0.58
384.931	-0.59
385.288	-0.62
385.646	-0.75
386.003	-0.77
386.361	-0.76
386.718	-0.74
387.076	-0.77
387.433	-0.85
387.791	-0.83
388.148	-0.83
388.505	-0.83
388.862	-0.84
389.22	-0.82
389.577	-0.74
389.934	-0.64
390.291	-0.62
390.648	-0.59
391.005	-0.64
391.362	-0.73
391.718	-0.76
392.075	-0.81
392.432	-0.82
392.789	-0.86
393.145	-0.85
393.502	-0.84
393.859	-0.8
394.215	-0.76
394.572	-0.78
394.928	-0.79
395.285	-0.77
395.641	-0.83
395.997	-0.8
396.354	-0.72
396.71	-0.65
397.066	-0.6
397.422	-0.47
397.778	-0.49
398.134	-0.51
398.491	-0.6
398.846	-0.67
399.202	-0.65
399.558	-0.71
399.914	-0.66
400.27	-0.64
400.626	-0.68
400.981	-0.67
401.337	-0.69
401.693	-0.68
402.048	-0.71
402.404	-0.67
402.759	-0.72
403.115	-0.71
403.47	-0.61
403.826	-0.68
404.181	-0.73
404.536	-0.72
404.892	-0.76
405.247	-0.83
405.602	-0.86
405.957	-0.88
406.312	-0.94
406.667	-0.98
407.022	-0.98
407.377	-0.9
407.732	-0.87
408.087	-0.92
408.442	-0.93
408.796	-0.99
409.151	-0.94
409.506	-0.84
409.86	-0.86
410.215	-0.86
410.57	-0.89
410.924	-0.85
411.279	-0.88
411.633	-0.96
411.987	-0.97
412.342	-0.99
412.696	-0.93
413.05	-0.87
413.404	-0.83
413.758	-0.71
414.113	-0.66
414.467	-0.7
414.821	-0.76
415.175	-0.79
415.529	-0.83
415.882	-0.82
416.236	-0.89
416.59	-0.91
416.944	-0.85
417.298	-0.73
417.651	-0.7
418.005	-0.64
418.358	-0.67
418.712	-0.64
419.065	-0.7
419.419	-0.69
419.772	-0.77
420.126	-0.71
420.479	-0.63
420.832	-0.71
421.185	-0.64
421.539	-0.68
421.892	-0.74
422.245	-0.72
422.598	-0.76
422.951	-0.69
423.304	-0.74
423.657	-0.75
424.01	-0.71
424.363	-0.66
424.715	-0.65
425.068	-0.69
425.421	-0.64
425.773	-0.66
426.126	-0.62
426.479	-0.65
426.831	-0.65
427.184	-0.76
427.536	-0.75
427.889	-0.72
428.241	-0.65
428.593	-0.58
428.945	-0.57
429.298	-0.58
429.65	-0.52
430.002	-0.57
430.354	-0.52
430.706	-0.41
431.058	-0.46
431.41	-0.55
431.762	-0.67
432.114	-0.59
432.466	-0.51
432.817	-0.46
433.169	-0.38
433.521	-0.39
433.872	-0.32
434.224	-0.42
434.576	-0.44
434.927	-0.52
435.279	-0.53
435.63	-0.58
435.981	-0.48
436.333	-0.48
436.684	-0.43
437.035	-0.49
437.387	-0.51
437.738	-0.53
438.089	-0.58
438.44	-0.56
438.791	-0.6
439.142	-0.62
439.493	-0.65
439.844	-0.59
440.195	-0.51
440.545	-0.36
440.896	-0.25
441.247	-0.26
441.598	-0.38
441.948	-0.44
442.299	-0.44
442.649	-0.44
443	-0.41
443.35	-0.39
443.701	-0.38
444.051	-0.38
444.401	-0.44
444.752	-0.49
445.102	-0.51
445.452	-0.59
445.802	-0.65
446.152	-0.7
446.502	-0.8
446.852	-0.84
447.202	-0.81
447.552	-0.83
447.902	-0.78
448.252	-0.89
448.602	-1.39
448.952	-1.48
449.301	-1.61
449.651	-1.62
450.001	-1.67
450.35	-1.72
450.7	-1.7
451.049	-1.72
451.399	-1.64
451.748	-1.6
452.097	-1.57
452.447	-1.65
452.796	-1.63
453.145	-1.5
453.494	-1.51
453.843	-1.47
454.193	-1.43
454.542	-1.42
454.891	-1.4
455.239	-1.42
455.588	-1.29
455.937	-1.42
456.286	-1.4
456.635	-1.52
456.984	-1.4
457.332	-0.86
457.681	-0.81
458.03	-0.71
458.378	-0.88
458.727	-0.86
459.075	-0.76
459.423	-0.64
459.772	-0.65
460.12	-0.85
460.468	-0.83
460.817	-0.8
461.165	-0.76
461.513	-0.77
461.861	-0.78
462.209	-0.68
462.557	-0.66
462.905	-0.7
463.253	-0.68
463.601	-0.54
463.949	-0.38
464.297	-0.47
464.644	-0.38
464.992	-0.28
465.34	-0.24
465.687	-0.25
466.035	-0.33
466.383	-0.22
466.73	-0.3
467.078	-0.27
467.425	-0.23
467.772	-0.08
468.12	-0.22
468.467	-0.23
468.814	-0.04
469.161	-0.03
469.508	0.03
469.856	0.04
470.203	-0.01
470.55	-0.13
470.897	-0.14
471.243	-0.23
471.59	-0.14
471.937	-0.13
472.284	-0.16
472.631	-0.37
472.977	-0.22
473.324	-0.16
473.671	-0.29
474.017	-0.28
474.364	-0.38
474.71	-0.29
475.057	-0.39
475.403	-0.37
475.749	-0.32
476.096	-0.35
476.442	-0.4
476.788	-0.38
477.134	-0.33
477.48	-0.36
477.826	-0.38
478.172	-0.46
478.518	-0.4
478.864	-0.3
479.21	-0.17
479.556	-0.23
479.902	-0.12
480.248	-0.14
480.593	-0.12
480.939	-0.18
481.285	-0.08
481.63	-0.16
481.976	-0.2
482.321	-0.09
482.667	-0.07
483.012	-0.01
483.357	-0
483.703	0.07
484.048	0.17
484.393	0.24
484.738	0.25
485.084	0.18
485.429	0.21
485.774	0.22
486.119	0.23
486.464	0.29
486.808	0.37
487.153	0.38
487.498	0.4
487.843	0.4
488.188	0.58
488.532	0.69
488.877	0.77
489.222	0.88
489.566	1.05
489.911	1.29
490.255	1.51
490.6	1.67
490.944	1.81
491.288	2
491.633	2.25
491.977	2.44
492.321	2.71
492.665	2.91
493.009	3.16
493.353	3.53
493.697	3.93
494.041	4.24
494.385	4.62
494.729	4.98
495.073	5.38
495.417	5.84
495.76	6.3
496.104	6.77
496.448	7.22
496.791	7.69
497.135	8.14
497.479	8.71
497.822	9.32
498.165	9.99
498.509	10.54
498.852	11.17
499.196	11.86
499.539	12.55
499.882	13.31
500.225	14.01
500.568	14.77
500.911	15.42
501.254	16.12
501.597	16.82
501.94	17.43
502.283	18.05
502.626	18.82
502.969	19.5
503.312	20.26
503.654	21
503.997	21.61
504.34	22.35
504.682	23.09
505.025	23.81
505.367	24.62
505.71	25.24
506.052	25.97
506.395	26.69
506.737	27.38
507.079	28.07
507.421	28.8
507.764	29.4
508.106	30.02
508.448	30.63
508.79	31.27
509.132	31.86
509.474	32.49
509.816	33.07
510.158	33.7
510.499	34.31
510.841	34.96
511.183	35.56
511.525	36.14
511.866	36.76
512.208	37.25
512.549	37.85
512.891	38.47
513.232	39.08
513.574	39.73
513.915	40.13
514.256	40.81
514.598	41.35
514.939	41.85
515.28	42.33
515.621	42.87
515.962	43.33
516.303	44
516.644	44.54
516.985	44.99
517.326	45.51
517.667	46.01
518.008	46.43
518.349	46.97
518.69	47.46
519.03	48.07
519.371	48.56
519.712	48.98
520.052	49.39
520.393	49.65
520.733	50.11
521.074	50.61
521.414	51.03
521.754	51.39
522.095	51.71
522.435	52.15
522.775	52.56
523.115	52.95
523.455	53.14
523.795	53.5
524.135	53.79
524.475	54
524.815	54.27
525.155	54.75
525.495	55.02
525.835	55.21
526.175	55.52
526.514	55.85
526.854	56.03
527.194	56.09
527.533	56.15
527.873	56.39
528.212	56.64
528.552	57.04
528.891	57.34
529.23	57.56
529.57	57.84
529.909	57.98
530.248	58.1
530.587	58.37
530.927	58.4
531.266	58.32
531.605	58.47
531.944	58.7
532.283	58.81
532.621	58.95
532.96	59.32
533.299	59.47
533.638	59.55
533.977	59.63
534.315	59.79
534.654	59.97
534.992	60.1
535.331	60.32
535.67	60.7
536.008	61.06
536.346	61.3
536.685	61.36
537.023	61.37
537.361	61.55
537.7	61.62
538.038	61.54
538.376	61.71
538.714	62.09
539.052	62.29
539.39	62.56
539.728	62.78
540.066	62.88
540.404	63.09
540.741	63.22
541.079	63.39
541.417	63.32
541.755	63.42
542.092	63.4
542.43	63.6
542.767	63.73
543.105	63.59
543.442	63.67
543.78	63.7
544.117	63.7
544.454	63.74
544.792	63.62
545.129	63.82
545.466	63.86
545.803	63.91
546.14	64.04
546.477	64.25
546.814	64.29
547.151	64.04
547.488	64.12
547.825	64.15
548.162	64.25
548.499	64.33
548.835	64.44
549.172	64.51
549.509	64.7
549.845	64.81
550.182	64.82
550.518	64.85
550.855	64.89
551.191	64.89
551.528	65.13
551.864	65.46
552.2	65.44
552.537	65.57
552.873	65.61
553.209	65.81
553.545	65.81
553.881	65.89
554.217	65.87
554.553	65.96
554.889	65.93
555.225	65.88
555.561	66.14
555.896	66.16
556.232	66.23
556.568	66.34
556.903	66.3
557.239	66.26
557.575	66.44
557.91	66.38
558.245	66.45
558.581	66.56
558.916	66.69
559.252	66.95
559.587	67.05
559.922	67.21
560.257	67.21
560.592	67.37
560.928	67.34
561.263	67.46
561.598	67.41
561.933	67.57
562.267	67.79
562.602	67.98
562.937	68.12
563.272	68.31
563.607	68.36
563.941	68.55
564.276	68.66
564.611	68.81
564.945	69.04
565.28	69.14
565.614	69.03
565.949	68.98
566.283	69.09
566.617	69.24
566.951	69.5
567.286	69.73
567.62	69.69
567.954	69.79
568.288	69.75
568.622	69.61
568.956	69.68
569.29	69.85
569.624	69.69
569.958	69.77
570.292	69.7
570.626	69.81
570.959	69.95
571.293	69.96
571.627	69.92
571.96	69.99
572.294	69.91
572.627	69.89
572.961	69.88
573.294	69.8
573.627	69.94
573.961	70.07
574.294	70.14
574.627	70.29
574.961	70.31
575.294	70.21
575.627	70.18
575.96	70.16
576.293	69.99
576.626	70.05
576.959	70.12
577.292	70.02
577.624	69.93
577.957	70.04
578.29	70.08
578.623	70.14
578.955	70.15
579.288	70.07
579.62	69.98
579.953	69.94
580.285	70.04
580.618	70.16
580.95	70.23
581.282	70.28
581.615	70.34
581.947	70.3
582.279	70.39
582.611	70.36
582.943	70.17
583.275	70.17
583.607	70.23
583.939	70.18
584.271	70.11
584.603	70.26
584.935	70.22
585.267	70.28
585.598	70.56
585.93	70.82
586.262	70.89
586.593	71.06
586.925	71.14
587.256	71.04
587.588	71.04
587.919	71.18
588.25	71.32
588.582	71.4
588.913	71.42
589.244	71.41
589.575	71.54
589.907	71.56
590.238	71.55
590.569	71.58
590.9	71.74
591.231	71.84
591.562	71.81
591.892	71.71
592.223	71.81
592.554	71.93
592.885	71.97
593.215	71.93
593.546	71.78
593.877	71.58
594.207	71.33
594.538	71.14
594.868	71
595.198	70.85
595.529	70.84
595.859	70.74
596.189	71.01
596.52	71.16
596.85	71.17
597.18	71.08
597.51	71.19
597.84	71.06
598.17	70.98
598.5	70.94
598.83	70.91
599.16	70.89
599.489	70.94
599.819	70.88
600.149	70.88
600.479	70.73
600.808	70.66
601.138	70.61
601.467	70.58
601.797	70.68
602.126	70.75
602.456	70.92
602.785	71.15
603.114	71.09
603.443	71.22
603.773	71.23
604.102	71.45
604.431	71.15
604.76	70.99
605.089	70.82
605.418	70.74
605.747	70.59
606.076	70.67
606.405	70.71
606.733	70.79
607.062	70.86
607.391	70.68
607.72	70.49
608.048	70.55
608.377	70.52
608.705	70.51
609.034	70.58
609.362	70.58
609.69	70.69
610.019	70.72
610.347	70.76
610.675	70.58
611.004	70.53
611.332	70.6
611.66	70.54
611.988	70.48
612.316	70.68
612.644	70.69
612.972	70.68
613.3	70.77
613.627	70.83
613.955	70.85
614.283	70.58
614.611	70.43
614.938	70.5
615.266	70.34
615.593	70.57
615.921	70.63
616.248	70.77
616.576	70.8
616.903	70.95
617.23	70.69
617.558	70.75
617.885	70.68
618.212	70.38
618.539	70.28
618.866	70
619.193	69.92
619.52	69.8
619.847	69.94
620.174	69.84
620.501	69.47
620.828	69.56
621.155	69.58
621.481	69.28
621.808	69.13
622.135	69.01
622.461	69.25
622.788	69.4
623.114	69.3
623.441	69.01
623.767	68.91
624.093	68.85
624.42	68.48
624.746	68.48
625.072	68.25
625.398	68.61
625.725	68.68
626.051	68.7
626.377	68.91
626.703	68.69
627.029	68.82
627.354	68.61
627.68	68.6
628.006	68.52
628.332	68.47
628.658	68.36
628.983	68.18
629.309	68.23
629.634	68.58
629.96	68.84
630.285	69.03
630.611	68.96
630.936	69.21
631.262	69.63
631.587	69.78
631.912	70.02
632.237	70.3
632.562	70.95
632.887	71.34
633.213	71.62
633.538	71.75
633.863	71.63
634.187	71.27
634.512	70.92
634.837	70.68
635.162	70.78
635.487	70.72
635.811	70.94
636.136	71.25
636.461	71.5
636.785	71.29
637.11	71.48
637.434	71.2
637.758	70.98
638.083	70.86
638.407	70.58
638.731	70.17
639.056	70.26
639.38	69.54
639.704	70.42
640.028	70.22
640.352	70.09
640.676	69.46
641	68.96
641.324	68.97
641.648	68.46
641.972	68.95
642.295	69.24
642.619	69.73
642.943	70.07
643.266	70.22
643.59	70.96
643.913	70.49
644.237	70.07
644.56	69.61
644.884	69.87
645.207	69.69
645.53	69.57
645.854	69.62
646.177	69.45
646.5	69.37
646.823	69.69
647.146	69.15
647.469	69.46
647.792	68.7
648.115	68.55
648.438	68.82
648.761	71.78
649.084	72.74
649.406	72.36
649.729	71.66
650.052	71.18
650.374	70.97
650.697	70.84
651.019	71
651.342	71.06
651.664	71.07
651.987	71.21
652.309	71.1
652.631	71.44
652.953	71.55
653.276	71.35
653.598	71.41
653.92	71.53
654.242	71.63
654.564	71.67
654.886	71.58
655.208	71.61
655.53	71.51
655.851	71.57
656.173	71.74
656.495	71.76
656.816	70.56
657.138	69.84
657.46	69.06
657.781	69
658.103	69.1
658.424	69.41
658.746	69.33
659.067	68.54
659.388	68.07
659.709	67.28
660.031	66.84
660.352	66.87
660.673	65.45
660.994	65.03
661.315	66.36
661.636	65.9
661.957	65.37
662.278	65.42
662.599	65.34
662.919	65.39
663.24	65.77
663.561	65.34
663.881	64.83
664.202	64.23
664.523	63.43
664.843	63.41
665.164	63.09
665.484	64.01
665.804	64.39
666.125	64.42
666.445	64.88
666.765	64.91
667.085	65.2
667.405	65.25
667.726	65.79
668.046	66.32
668.366	65.76
668.686	65.71
669.005	65.22
669.325	64.49
669.645	63.75
669.965	63.5
670.285	63.15
670.604	63.08
670.924	62.79
671.243	63.2
671.563	63.52
671.882	63.96
672.202	63.35
672.521	63.93
672.841	64.1
673.16	63.77
673.479	63.42
673.798	63.87
674.117	64.25
674.437	63.38
674.756	63.96
675.075	63.93
675.394	63.41
675.713	63.59
676.031	63.98
676.35	64.83
676.669	64.99
676.988	65.68
677.306	66.17
677.625	67.52
677.944	68
678.262	67.88
678.581	68.01
678.899	68
679.218	67.49
679.536	67.59
679.854	67.1
680.172	67.12
680.491	66.65
680.809	66.9
681.127	66.87
681.445	67.07
681.763	67.42
682.081	66.78
682.399	66.77
682.717	66.27
683.035	66.13
683.352	66.05
683.67	65.03
683.988	65.27
684.306	65.11
684.623	65.58
684.941	65.27
685.258	65.33
685.576	65.02
685.893	64.67
686.211	64.99
686.528	65.2
686.845	65.49
687.162	64.88
687.48	64.95
687.797	65.64
688.114	66
688.431	65.98
688.748	65.33
689.065	65.3
689.382	66.07
689.699	66.19
690.015	67
690.332	68.65
690.649	69.61
690.966	70.25
691.282	71.28
691.599	71.6
691.915	70.64
692.232	70.71
692.548	70.71
692.865	70.42
693.181	70.76
693.497	70.56
693.813	71.01
694.13	70.94
694.446	69.66
694.762	70.29
695.078	70.84
695.394	71.08
695.71	70.16
696.026	69.92
696.342	70.16
696.658	71.45
696.973	72.58
697.289	71.78
697.605	70.87
697.92	71.1
698.236	70.37
698.551	70.56
698.867	70.38
699.182	70.58
699.498	71.25
699.813	71.75
700.128	72.72
700.444	72.53
700.759	73.56
701.074	72.18
701.389	72.94
701.704	72.8
702.019	72.24
702.334	74.61
702.649	73.95
702.964	73.63
703.279	73.33
703.594	74.4
703.908	74.06
704.223	73.32
704.538	71.78
704.852	70.39
705.167	69.43
705.481	69.57
705.796	69.1
706.11	67.33
706.425	66.33
706.739	66.41
707.053	65.85
707.368	67.01
707.682	66.85
707.996	66.28
708.31	67.03
708.624	66.9
708.938	67.07
709.252	66.92
709.566	66.77
709.88	67.82
710.193	65.2
710.507	65.87
710.821	66.6
711.135	66.11
711.448	65.84
711.762	67.18
712.075	67.44
712.389	69.53
712.702	70.13
713.015	70.77
713.329	70.3
713.642	70.47
713.955	72.76
714.269	72.94
714.582	72.57
714.895	71.5
715.208	70.45
715.521	71.06
715.834	71.5
716.147	71.67
716.459	70.72
716.772	71.51
717.085	70.66
717.398	70.23
717.71	68.77
718.023	69.76
718.336	69.17
718.648	69.67
718.961	68.73
719.273	68.47
719.585	69.15
719.898	70.68
720.21	68.99
720.522	68.06
720.834	68.34
721.147	68.12
721.459	66.55
721.771	66.66
722.083	67
722.395	67.41
722.707	68.32
723.019	66.99
723.33	64.47
723.642	64.95
723.954	63.34
724.265	64.84
724.577	63.27
724.889	63.76
725.2	64.44
725.512	65.62
725.823	66.46
726.135	66.78
726.446	66.06
726.757	67.52
727.068	68.39
727.38	66.96
727.691	65.77
728.002	66.12
728.313	66.9
728.624	67.34
728.935	68.71
729.246	70.3
729.557	70.05
729.867	70
730.178	70.29
730.489	71.89
730.8	73.07
731.11	74.16
731.421	73.5
731.731	73.17
732.042	71.76
732.352	72.72
732.663	71.82
732.973	71.41
733.283	70.95
733.594	71.58
733.904	71.21
734.214	71.51
734.524	71.1
734.834	71.55
735.144	71.17
735.454	71.79
735.764	72.35
736.074	72.63
736.384	72.85
736.694	71.82
737.003	70.54
737.313	70.97
737.623	70.34
737.932	69.64
738.242	68.46
738.551	68.27
738.861	67.91
739.17	66.67
739.479	67.62
739.789	68.57
740.098	67.11
740.407	67.03
740.716	68.97
741.025	69.33
741.334	67.01
741.643	67.88
741.952	67.89
742.261	67.47
742.57	65.69
742.879	65.76
743.188	66.82
743.497	67.26
743.805	68.83
744.114	68.77
744.422	68.65
744.731	71
745.04	68.58
745.348	73.27
745.656	70.4
745.965	70.72
746.273	69.83
746.581	70.91
746.889	69.08
747.198	68.82
747.506	69.41
747.814	70.73
748.122	71.32
748.43	68.93
748.738	67.97
749.046	71.6
749.353	70.88
749.661	72.25
749.969	74.1
750.277	72.83
750.584	72.59
750.892	71.74
751.199	70.5
751.507	69.59
751.814	68.03
752.122	67.8
752.429	66.53
752.736	67.53
753.044	64.5
753.351	67.4
753.658	65.79
753.965	66.17
754.272	66.43
754.579	68.43
754.886	68.14
755.193	67.36
755.5	66.49
755.807	68.38
756.114	67.45
756.42	69.25
756.727	66.29
757.034	66.74
757.34	65.1
757.647	62.74
757.953	63.73
758.26	63.27
758.566	60.85
758.872	59.88
759.179	61.14
759.485	61.29
759.791	60.46
760.097	60.21
760.403	60.21
760.709	58.98
761.015	56.94
761.321	60.17
761.627	58.72
761.933	57.13
762.239	55.41
762.545	52.06
762.851	52.85
763.156	52.16
763.462	50.63
763.767	51.67
764.073	49.31
764.378	49.13
764.684	47.51
764.989	46.47
765.295	49.12
765.6	49.31
765.905	50.09
766.21	52.66
766.515	50.15
766.821	45.43
767.126	45.75
767.431	47.31
767.736	48.03
768.041	44.96
768.345	42.96
768.65	42.33
768.955	32.99
769.26	28.54
769.564	30.66
769.869	33.25
770.174	37.2
770.478	38.37
770.783	40.36
771.087	43.58
771.391	40.86
771.696	41.49
772	49.49
772.304	50.72
772.608	57.58
772.913	67.61
773.217	65.69
773.521	64.73
773.825	63.13
774.129	70.21
774.433	69.59
774.736	63.58
775.04	69.09
775.344	69.39
775.648	68.81
775.951	71.77
776.255	77.48
776.559	83.75
776.862	94.77
777.166	97.34
777.469	96.72
777.772	91.32
778.076	91.48
778.379	92.3
778.682	81.33
778.985	83.4
779.289	75.59
779.592	71.25
779.895	73.1
780.198	75.85
780.501	64.88
780.804	64.35
781.106	63.62
781.409	63.7
781.712	62.82
782.015	65.18
782.317	69
782.62	63.8
782.923	61.63
783.225	62.51
783.527	65.33
783.83	57.78
784.132	51.21
784.435	49.63
784.737	48.7
785.039	47.8
785.341	49.94
785.643	43.95
785.945	29.33
786.248	36.15
786.55	50.32
786.851	53.33
787.153	44.69
787.455	43.56
787.757	40.06
788.059	31.31
788.36	21.42
788.662	30.28
788.964	32.34
789.265	31.07
789.567	35.49
789.868	26.49
790.17	12.54
790.471	21.76
790.772	16.19
791.074	-1.45
791.375	8.96
791.676	10.1
791.977	8.35
792.278	17.87
792.579	21.04
792.88	19.5
793.181	20.3
793.482	25.2
793.783	16.94
794.083	1.79
794.384	4.25
794.685	0.15
794.986	-15.65
795.286	-33.08
795.587	-18.45
795.887	-5.2
796.188	-4.11
796.488	-9.94
796.788	-3.42
797.089	-9.84
797.389	8.16
797.689	30.93
797.989	21.39
798.289	7.67
798.589	26.8
798.889	14.1
799.189	23.57
799.489	27.73
799.789	9
800.089	-0.22
800.389	-8.59
800.688	-1.51
800.988	-5.48
801.288	0.6
801.587	-4.14
801.887	-22.13
802.186	-12.45
802.486	-4.3
802.785	0.6
803.085	8.41
803.384	0.69
803.683	-18.85
803.982	-23.41
804.281	-64
804.58	-50.28
804.879	-188.36
805.178	-279.18
805.477	-164.99
805.776	-133.98
806.075	-215.91
806.374	-133.31
806.673	-175.9
806.971	-337.89
807.27	-2578.52
807.569	-3743.68
807.867	-2185.71
808.166	1035.85
808.464	805.72
808.763	351.17
809.061	275.36
809.359	235.4
809.658	280.67
809.956	162.2
810.254	108.2
810.552	163.56
810.85	137.42
811.148	145.14
811.446	132.24
811.744	125.79
812.042	135.4
812.34	131.39
812.638	152.94
812.935	119.6
813.233	152.41
813.531	247.55
813.828	239.09
814.126	209.2
814.423	227.39
814.721	272.63
815.018	248.27
815.316	296.51
815.613	342.17
815.91	372.44
816.207	302.86
816.504	282.28
816.802	492.96
817.099	354.23
817.396	600.29
817.693	808.72
817.99	1002.97
818.286	722.99
818.583	-1158.9
818.88	1107.52
819.177	671.3
819.473	765.46
819.77	855.83
820.067	2066.17
820.363	6039.73
820.66	-2321.86
820.956	1086.58
821.252	-6956.41
821.549	1781.75
821.845	2242.15
822.141	-1528.74
822.437	-350.09
822.734	-553.38
823.03	1150.89
823.326	198.68
823.622	265.75
823.918	1110.53
824.213	65.84
824.509	35.35
824.805	227.31
825.101	184.72
825.397	140.61
825.692	240.03
825.988	89.48
826.283	142.91
826.579	291.9
826.874	-1639.81
827.17	-3633.33
827.465	487.76
827.76	297.94
828.056	271.76
828.351	1038.15
828.646	328.12
828.941	501.54
829.236	469.08
829.531	319.96
829.826	234.04
830.121	242.78
830.416	223.67
830.711	189.35
831.006	191.81
831.3	216.68
831.595	156.91
831.89	138.64
832.184	109.39
832.479	111.71
832.773	132.35
833.068	118.9
833.362	121.51
833.656	129.05
833.951	108.42
834.245	118.25
834.539	151.07
834.833	148.28
835.127	142.46
835.421	131.69
835.715	117.63
836.009	120.82
836.303	102.83
836.597	97.65
836.891	98.19
837.185	122.52
837.478	107.21
837.772	117.89
838.066	147.66
838.359	166.24
838.653	162.27
838.946	179.08
839.24	214.69
839.533	218.59
839.826	300.85
840.119	316.95
840.413	303.36
840.706	343.41
840.999	228.79
841.292	273.1
841.585	239.01
841.878	173.5
842.171	194.01
842.464	280.18
842.757	266.39
843.049	274.51
843.342	245.78
843.635	271.88
843.927	342.37
844.22	360.35
844.513	417.16
844.805	815.32
845.098	1184.24
845.39	1203.06
845.682	1086.85
845.975	1700
846.267	602.4
846.559	437.13
846.851	370.6
847.143	281.23
847.435	351.55
847.727	386.65
848.019	560.96
848.311	1206.58
848.603	2146.35
848.895	-1338.53
849.186	-344.2
849.478	-18891.3
849.77	1354.71
850.061	2009.01
850.353	-3530.25
850.645	-549.08
850.936	-522.09
851.227	-56814.29
851.519	-1222.19
851.81	891.82
852.101	658.2
852.393	1781.11
852.684	-2601.99
852.975	-782.64
853.266	-332.96
853.557	-270.12
853.848	-154.94
854.139	-85.95
854.43	-113.58
854.72	-202.12
855.011	-312.85
855.302	-387.73
855.593	-507.27
855.883	-730.49
856.174	-650.53
856.464	-2461.75
856.755	2660
857.045	1322.28
857.336	1425.21
857.626	-5821.84
857.916	4291.74
858.206	-23204.35
858.497	-526.52
858.787	-640.41
859.077	-765.05
859.367	-268.22
859.657	-420.69
859.947	-1710.78
860.237	2190.51
860.527	436.84
860.816	335.77
861.106	202.15
861.396	269.44
861.685	446.52
861.975	658.41
862.265	765.04
862.554	400.67
862.844	-1438.8
863.133	-1037.64
863.422	-1053.04
863.712	-399.59
864.001	-136.33
864.29	-128.44
864.579	-123.74
864.868	-170.86
865.157	-161.39
865.446	-183.74
865.735	-387.99
866.024	-335.64
866.313	-217
866.602	-414.29
866.891	-376.16
867.179	-225.56
867.468	-208.22
