Data from T2_Reflection__34__19-11-56-240.txt Node

Date: Fri Jun 04 19:11:56 CEST 2021
User: mabdelazizm
Spectrometer: FLMS18565
Trigger mode: 0
Integration Time (sec): 2.000000E0
Scans to average: 1
Electric dark correction enabled: true
Nonlinearity correction enabled: false
Boxcar width: 12
XAxis mode: Wavelengths
Number of Pixels in Spectrum: 2048
>>>>>Begin Spectral Data<<<<<
179.071	109.35
179.452	89.08
179.833	92.8
180.214	26.92
180.595	-27.95
180.977	-53.61
181.358	-10.99
181.739	-81.01
182.12	-16.58
182.501	-38.93
182.882	-58.23
183.262	-380
183.643	-64.06
184.024	-25.92
184.405	0.12
184.786	3.37
185.166	-2.03
185.547	9.51
185.927	7.69
186.308	-3.22
186.689	7.59
187.069	14.37
187.449	8.46
187.83	-3.3
188.21	-3.79
188.59	-7.77
188.971	-6.5
189.351	-4.48
189.731	0.52
190.111	1.35
190.491	4
190.871	3.64
191.251	11.03
191.631	11.29
192.011	9.67
192.391	11.22
192.771	14.56
193.151	12.15
193.531	12.59
193.91	15.07
194.29	17.86
194.67	17.98
195.049	15.07
195.429	12.11
195.808	12.43
196.188	5.55
196.567	2.56
196.946	5.79
197.326	7
197.705	9.1
198.084	8.55
198.464	6.12
198.843	8.67
199.222	8.14
199.601	6.78
199.98	5.02
200.359	4.62
200.738	2.32
201.117	-1.19
201.496	-2.43
201.875	-1.87
202.254	-2.09
202.632	-3.88
203.011	-1.57
203.39	-4
203.768	-5.63
204.147	-6.2
204.525	-5.41
204.904	-5.59
205.282	-3.95
205.661	-3.8
206.039	-1.35
206.418	-3.53
206.796	0.17
207.174	0.17
207.552	2.98
207.931	2.14
208.309	1.88
208.687	2.09
209.065	4.35
209.443	3.82
209.821	1.62
210.199	0.68
210.577	1.91
210.954	5.7
211.332	2.96
211.71	1.6
212.088	5.2
212.465	3.8
212.843	4.09
213.221	6.12
213.598	7.94
213.976	5.46
214.353	6.64
214.731	6.15
215.108	6.23
215.485	5.98
215.863	5.1
216.24	2.65
216.617	2.29
216.994	0.35
217.371	2.22
217.749	2.34
218.126	2.23
218.503	1.98
218.88	1.51
219.256	2.33
219.633	3.39
220.01	3.32
220.387	3.19
220.764	3.97
221.14	4.52
221.517	3.97
221.894	3.35
222.27	3.53
222.647	2.83
223.023	2.59
223.4	2.47
223.776	2.81
224.153	2.02
224.529	2.31
224.905	2.79
225.282	3.17
225.658	2.72
226.034	2.28
226.41	2.66
226.786	1.79
227.162	1.67
227.538	1.59
227.914	1.7
228.29	1.51
228.666	1.55
229.042	1.37
229.418	1.59
229.793	1.14
230.169	1.1
230.545	0.74
230.92	0.52
231.296	0.53
231.672	0.36
232.047	0.4
232.422	0.17
232.798	0.31
233.173	0.09
233.549	0.31
233.924	0.26
234.299	0.11
234.674	0.02
235.05	0.1
235.425	0.18
235.8	0.1
236.175	0.2
236.55	0.27
236.925	0.24
237.3	0.32
237.675	0.48
238.049	0.36
238.424	0.29
238.799	0.3
239.174	0.41
239.548	0.42
239.923	0.52
240.297	0.5
240.672	0.52
241.046	0.58
241.421	0.59
241.795	0.65
242.17	0.65
242.544	0.72
242.918	0.64
243.293	0.64
243.667	0.59
244.041	0.71
244.415	0.81
244.789	0.81
245.163	0.85
245.537	0.94
245.911	0.92
246.285	0.92
246.659	0.95
247.033	0.93
247.406	0.97
247.78	1.06
248.154	0.96
248.528	0.92
248.901	0.9
249.275	0.89
249.648	0.97
250.022	0.95
250.395	0.91
250.769	0.87
251.142	0.9
251.515	0.84
251.888	0.83
252.262	0.84
252.635	0.86
253.008	0.92
253.381	0.87
253.754	0.8
254.127	0.79
254.5	0.71
254.873	0.67
255.246	0.62
255.619	0.65
255.992	0.65
256.364	0.65
256.737	0.67
257.11	0.63
257.483	0.68
257.855	0.74
258.228	0.78
258.6	0.8
258.973	0.83
259.345	0.92
259.718	0.91
260.09	0.93
260.462	0.85
260.834	0.9
261.207	0.89
261.579	0.86
261.951	0.9
262.323	0.83
262.695	0.84
263.067	0.9
263.439	0.96
263.811	1.02
264.183	1.05
264.555	1.07
264.927	1.08
265.298	1.04
265.67	0.99
266.042	0.97
266.413	0.95
266.785	0.94
267.156	0.91
267.528	0.86
267.899	0.83
268.271	0.77
268.642	0.65
269.013	0.71
269.385	0.66
269.756	0.67
270.127	0.62
270.498	0.62
270.87	0.64
271.241	0.61
271.612	0.66
271.983	0.63
272.354	0.56
272.724	0.52
273.095	0.53
273.466	0.49
273.837	0.47
274.208	0.45
274.578	0.39
274.949	0.43
275.32	0.43
275.69	0.38
276.061	0.34
276.431	0.29
276.802	0.26
277.172	0.24
277.542	0.28
277.913	0.31
278.283	0.29
278.653	0.3
279.023	0.3
279.394	0.33
279.764	0.32
280.134	0.33
280.504	0.29
280.874	0.28
281.244	0.25
281.614	0.25
281.983	0.22
282.353	0.24
282.723	0.3
283.093	0.32
283.462	0.32
283.832	0.37
284.202	0.36
284.571	0.31
284.941	0.37
285.31	0.45
285.68	0.49
286.049	0.48
286.418	0.46
286.788	0.43
287.157	0.41
287.526	0.41
287.895	0.43
288.264	0.49
288.633	0.46
289.002	0.45
289.371	0.5
289.74	0.5
290.109	0.48
290.478	0.49
290.847	0.51
291.216	0.51
291.585	0.41
291.953	0.33
292.322	0.3
292.691	0.25
293.059	0.18
293.428	0.17
293.796	0.24
294.165	0.24
294.533	0.17
294.901	0.15
295.27	0.21
295.638	0.2
296.006	0.17
296.374	0.13
296.743	0.11
297.111	0.12
297.479	0.04
297.847	0.06
298.215	0.03
298.583	-0.02
298.95	-0.02
299.318	-0.03
299.686	-0.04
300.054	-0.09
300.422	-0.06
300.789	-0.05
301.157	-0.06
301.525	-0.07
301.892	0
302.26	0.03
302.627	0.08
302.994	0.07
303.362	0.09
303.729	0.11
304.097	0.08
304.464	0.04
304.831	0.07
305.198	0.06
305.565	0.11
305.932	0.1
306.299	0.08
306.666	0.09
307.033	0.1
307.4	0.12
307.767	0.1
308.134	0.09
308.501	0.13
308.867	0.16
309.234	0.18
309.601	0.17
309.967	0.15
310.334	0.2
310.701	0.19
311.067	0.14
311.433	0.19
311.8	0.1
312.166	0.09
312.533	0.03
312.899	0.06
313.265	0.09
313.631	0.11
313.997	0.11
314.363	0.14
314.729	0.1
315.096	0.1
315.461	0.07
315.827	0.13
316.193	0.13
316.559	0.17
316.925	0.18
317.291	0.2
317.656	0.16
318.022	0.11
318.388	0.12
318.753	0.1
319.119	0.13
319.484	0.19
319.85	0.18
320.215	0.19
320.581	0.17
320.946	0.22
321.311	0.19
321.676	0.18
322.042	0.14
322.407	0.13
322.772	0.16
323.137	0.2
323.502	0.27
323.867	0.33
324.232	0.28
324.597	0.29
324.962	0.25
325.327	0.26
325.691	0.23
326.056	0.22
326.421	0.19
326.785	0.26
327.15	0.27
327.514	0.2
327.879	0.2
328.243	0.24
328.608	0.16
328.972	0.22
329.337	0.19
329.701	0.17
330.065	0.2
330.429	0.23
330.794	0.26
331.158	0.27
331.522	0.27
331.886	0.21
332.25	0.11
332.614	0.11
332.978	0.09
333.342	0.17
333.705	0.2
334.069	0.17
334.433	0.13
334.797	0.12
335.16	0.13
335.524	0.15
335.887	0.09
336.251	0.11
336.614	0.15
336.978	0.16
337.341	0.09
337.705	0.04
338.068	0.06
338.431	0.1
338.794	0.08
339.158	0.02
339.521	0.02
339.884	-0.03
340.247	-0.04
340.61	-0.07
340.973	-0.06
341.336	-0.02
341.699	-0.12
342.062	-0.14
342.424	-0.2
342.787	-0.21
343.15	-0.22
343.512	-0.2
343.875	-0.22
344.238	-0.21
344.6	-0.23
344.963	-0.18
345.325	-0.22
345.688	-0.25
346.05	-0.29
346.412	-0.22
346.775	-0.18
347.137	-0.23
347.499	-0.23
347.861	-0.19
348.223	-0.17
348.585	-0.22
348.947	-0.2
349.309	-0.21
349.671	-0.18
350.033	-0.19
350.395	-0.18
350.757	-0.18
351.118	-0.24
351.48	-0.23
351.842	-0.26
352.203	-0.24
352.565	-0.24
352.927	-0.2
353.288	-0.22
353.65	-0.25
354.011	-0.31
354.372	-0.21
354.734	-0.16
355.095	-0.11
355.456	-0.14
355.817	-0.15
356.179	-0.14
356.54	-0.16
356.901	-0.19
357.262	-0.19
357.623	-0.15
357.984	-0.11
358.345	-0.08
358.705	-0.15
359.066	-0.14
359.427	-0.16
359.788	-0.08
360.148	-0.03
360.509	-0.02
360.87	0.03
361.23	0.06
361.591	0.1
361.951	0.03
362.312	0.01
362.672	0.02
363.032	0.06
363.393	0
363.753	-0.03
364.113	-0.07
364.473	-0.08
364.833	-0.04
365.193	-0.07
365.553	-0.1
365.913	-0.13
366.273	-0.21
366.633	-0.23
366.993	-0.25
367.353	-0.3
367.713	-0.25
368.072	-0.27
368.432	-0.26
368.792	-0.34
369.151	-0.37
369.511	-0.31
369.87	-0.33
370.23	-0.29
370.589	-0.32
370.949	-0.25
371.308	-0.21
371.667	-0.23
372.027	-0.28
372.386	-0.27
372.745	-0.3
373.104	-0.34
373.463	-0.34
373.822	-0.4
374.181	-0.35
374.54	-0.3
374.899	-0.23
375.258	-0.24
375.617	-0.22
375.975	-0.23
376.334	-0.19
376.693	-0.09
377.052	-0.07
377.41	-0.08
377.769	-0.06
378.127	-0.03
378.486	-0.12
378.844	-0.16
379.202	-0.2
379.561	-0.29
379.919	-0.29
380.277	-0.3
380.636	-0.26
380.994	-0.23
381.352	-0.26
381.71	-0.25
382.068	-0.16
382.426	-0.14
382.784	-0.12
383.142	-0.11
383.5	-0.17
383.857	-0.17
384.215	-0.13
384.573	-0.19
384.931	-0.12
385.288	-0.17
385.646	-0.29
386.003	-0.27
386.361	-0.28
386.718	-0.27
387.076	-0.32
387.433	-0.33
387.791	-0.34
388.148	-0.37
388.505	-0.35
388.862	-0.33
389.22	-0.33
389.577	-0.26
389.934	-0.24
390.291	-0.24
390.648	-0.19
391.005	-0.28
391.362	-0.36
391.718	-0.34
392.075	-0.45
392.432	-0.4
392.789	-0.46
393.145	-0.41
393.502	-0.39
393.859	-0.39
394.215	-0.33
394.572	-0.33
394.928	-0.36
395.285	-0.35
395.641	-0.37
395.997	-0.35
396.354	-0.26
396.71	-0.18
397.066	-0.18
397.422	-0.15
397.778	-0.22
398.134	-0.2
398.491	-0.36
398.846	-0.39
399.202	-0.38
399.558	-0.42
399.914	-0.39
400.27	-0.36
400.626	-0.42
400.981	-0.41
401.337	-0.4
401.693	-0.33
402.048	-0.39
402.404	-0.38
402.759	-0.33
403.115	-0.4
403.47	-0.4
403.826	-0.34
404.181	-0.29
404.536	-0.3
404.892	-0.37
405.247	-0.46
405.602	-0.55
405.957	-0.53
406.312	-0.58
406.667	-0.57
407.022	-0.58
407.377	-0.47
407.732	-0.46
408.087	-0.5
408.442	-0.53
408.796	-0.54
409.151	-0.45
409.506	-0.34
409.86	-0.32
410.215	-0.38
410.57	-0.46
410.924	-0.37
411.279	-0.41
411.633	-0.53
411.987	-0.54
412.342	-0.49
412.696	-0.54
413.05	-0.58
413.404	-0.51
413.758	-0.38
414.113	-0.31
414.467	-0.26
414.821	-0.32
415.175	-0.22
415.529	-0.26
415.882	-0.25
416.236	-0.31
416.59	-0.33
416.944	-0.3
417.298	-0.19
417.651	-0.16
418.005	-0.17
418.358	-0.19
418.712	-0.11
419.065	-0.12
419.419	-0.13
419.772	-0.24
420.126	-0.2
420.479	-0.07
420.832	-0.07
421.185	-0.04
421.539	-0.1
421.892	-0.12
422.245	-0.15
422.598	-0.14
422.951	-0.17
423.304	-0.17
423.657	-0.14
424.01	-0.19
424.363	-0.17
424.715	-0.15
425.068	-0.12
425.421	-0.16
425.773	-0.1
426.126	-0.06
426.479	-0.1
426.831	-0.12
427.184	-0.19
427.536	-0.15
427.889	-0.11
428.241	-0.06
428.593	-0.06
428.945	0
429.298	-0.12
429.65	-0.06
430.002	-0.07
430.354	0.06
430.706	0.1
431.058	0.17
431.41	0.08
431.762	0.08
432.114	0.05
432.466	0.08
432.817	0.14
433.169	0.19
433.521	0.15
433.872	0.17
434.224	0.22
434.576	0.16
434.927	0.04
435.279	0.06
435.63	0.1
435.981	0.19
436.333	0.11
436.684	0.19
437.035	0.25
437.387	0.26
437.738	0.21
438.089	0.31
438.44	0.27
438.791	0.17
439.142	0.15
439.493	0.17
439.844	0.09
440.195	0.14
440.545	0.22
440.896	0.26
441.247	0.23
441.598	0.21
441.948	0.19
442.299	0.18
442.649	0.21
443	0.19
443.35	0.25
443.701	0.25
444.051	0.26
444.401	0.21
444.752	0.23
445.102	0.24
445.452	0.14
445.802	0.1
446.152	0.12
446.502	0.15
446.852	-0.05
447.202	-0.01
447.552	0.04
447.902	-0.01
448.252	-0.07
448.602	0.33
448.952	0.34
449.301	0.29
449.651	0.32
450.001	0.34
450.35	0.32
450.7	0.33
451.049	0.39
451.399	0.43
451.748	0.49
452.097	0.59
452.447	0.6
452.796	0.67
453.145	0.74
453.494	0.66
453.843	0.68
454.193	0.75
454.542	0.79
454.891	0.86
455.239	0.76
455.588	0.93
455.937	0.86
456.286	0.86
456.635	0.84
456.984	0.79
457.332	0.34
457.681	0.27
458.03	0.31
458.378	0.19
458.727	0.2
459.075	0.26
459.423	0.26
459.772	0.29
460.12	0.13
460.468	0.16
460.817	0.12
461.165	0.14
461.513	0.09
461.861	0
462.209	0.04
462.557	0.09
462.905	0.01
463.253	-0.01
463.601	0.05
463.949	0.09
464.297	-0.01
464.644	0.1
464.992	0.14
465.34	0.11
465.687	0.22
466.035	0.14
466.383	0.26
466.73	0.26
467.078	0.38
467.425	0.37
467.772	0.41
468.12	0.38
468.467	0.32
468.814	0.45
469.161	0.44
469.508	0.39
469.856	0.34
470.203	0.34
470.55	0.31
470.897	0.4
471.243	0.28
471.59	0.36
471.937	0.32
472.284	0.23
472.631	0.18
472.977	0.28
473.324	0.29
473.671	0.21
474.017	0.24
474.364	0.2
474.71	0.31
475.057	0.21
475.403	0.2
475.749	0.18
476.096	0.21
476.442	0.18
476.788	0.13
477.134	0.14
477.48	0.13
477.826	0.11
478.172	0.04
478.518	0.1
478.864	0.11
479.21	0.22
479.556	0.12
479.902	0.22
480.248	0.25
480.593	0.26
480.939	0.28
481.285	0.34
481.63	0.31
481.976	0.29
482.321	0.35
482.667	0.43
483.012	0.44
483.357	0.49
483.703	0.6
484.048	0.68
484.393	0.76
484.738	0.75
485.084	0.78
485.429	0.87
485.774	0.94
486.119	0.99
486.464	1.06
486.808	1.13
487.153	1.18
487.498	1.26
487.843	1.22
488.188	1.37
488.532	1.47
488.877	1.54
489.222	1.69
489.566	1.89
489.911	2.14
490.255	2.36
490.6	2.5
490.944	2.7
491.288	2.88
491.633	3.17
491.977	3.28
492.321	3.53
492.665	3.8
493.009	4.02
493.353	4.39
493.697	4.68
494.041	5
494.385	5.34
494.729	5.66
495.073	5.99
495.417	6.42
495.76	6.84
496.104	7.23
496.448	7.73
496.791	8.15
497.135	8.58
497.479	9.1
497.822	9.6
498.165	10.07
498.509	10.56
498.852	11.09
499.196	11.72
499.539	12.28
499.882	12.74
500.225	13.35
500.568	13.99
500.911	14.53
501.254	15.13
501.597	15.74
501.94	16.3
502.283	16.92
502.626	17.54
502.969	18.15
503.312	18.73
503.654	19.35
503.997	20.02
504.34	20.65
504.682	21.32
505.025	21.93
505.367	22.67
505.71	23.32
506.052	23.93
506.395	24.55
506.737	25.24
507.079	25.88
507.421	26.6
507.764	27.25
508.106	27.91
508.448	28.72
508.79	29.3
509.132	29.95
509.474	30.6
509.816	31.1
510.158	31.78
510.499	32.34
510.841	32.97
511.183	33.57
511.525	34.14
511.866	34.89
512.208	35.55
512.549	36.03
512.891	36.57
513.232	37.17
513.574	37.81
513.915	38.27
514.256	38.78
514.598	39.37
514.939	39.84
515.28	40.27
515.621	40.73
515.962	41.06
516.303	41.52
516.644	41.89
516.985	42.21
517.326	42.68
517.667	43.19
518.008	43.48
518.349	43.96
518.69	44.27
519.03	44.8
519.371	45.25
519.712	45.56
520.052	45.91
520.393	46.02
520.733	46.35
521.074	46.71
521.414	47.14
521.754	47.41
522.095	47.68
522.435	47.99
522.775	48.29
523.115	48.65
523.455	48.98
523.795	49.35
524.135	49.67
524.475	49.93
524.815	50.21
525.155	50.71
525.495	51.08
525.835	51.24
526.175	51.45
526.514	51.86
526.854	52.01
527.194	52.27
527.533	52.35
527.873	52.33
528.212	52.59
528.552	52.78
528.891	53.06
529.23	53.18
529.57	53.4
529.909	53.61
530.248	53.62
530.587	53.92
530.927	53.96
531.266	54.12
531.605	54.14
531.944	54.2
532.283	54.25
532.621	54.25
532.96	54.52
533.299	54.57
533.638	54.55
533.977	54.73
534.315	54.97
534.654	55
534.992	55.05
535.331	55.17
535.67	55.4
536.008	55.57
536.346	55.92
536.685	55.83
537.023	55.99
537.361	56.26
537.7	56.37
538.038	56.48
538.376	56.43
538.714	56.73
539.052	56.61
539.39	56.76
539.728	56.72
540.066	56.73
540.404	56.96
540.741	57.24
541.079	57.35
541.417	57.4
541.755	57.52
542.092	57.48
542.43	57.33
542.767	57.34
543.105	57.27
543.442	57.36
543.78	57.46
544.117	57.38
544.454	57.55
544.792	57.44
545.129	57.67
545.466	57.67
545.803	57.61
546.14	57.64
546.477	57.67
546.814	57.8
547.151	57.72
547.488	57.88
547.825	58
548.162	58.07
548.499	58.25
548.835	58.24
549.172	58.11
549.509	58.18
549.845	58.25
550.182	58.03
550.518	58.21
550.855	58.25
551.191	58.26
551.528	58.39
551.864	58.46
552.2	58.48
552.537	58.51
552.873	58.45
553.209	58.66
553.545	58.51
553.881	58.54
554.217	58.55
554.553	58.74
554.889	58.83
555.225	58.78
555.561	58.86
555.896	59.01
556.232	58.96
556.568	59.18
556.903	59.16
557.239	59.06
557.575	59.29
557.91	59.33
558.245	59.4
558.581	59.75
558.916	59.74
559.252	59.99
559.587	59.89
559.922	60.04
560.257	60.05
560.592	60.07
560.928	60.36
561.263	60.51
561.598	60.32
561.933	60.7
562.267	60.76
562.602	60.86
562.937	61.03
563.272	61.04
563.607	61.23
563.941	61.49
564.276	61.45
564.611	61.66
564.945	61.7
565.28	61.96
565.614	62.07
565.949	62.09
566.283	62.07
566.617	62.1
566.951	62.18
567.286	62.35
567.62	62.32
567.954	62.55
568.288	62.58
568.622	62.54
568.956	62.57
569.29	62.58
569.624	62.45
569.958	62.51
570.292	62.5
570.626	62.6
570.959	62.66
571.293	62.57
571.627	62.72
571.96	62.63
572.294	62.58
572.627	62.53
572.961	62.62
573.294	62.62
573.627	62.64
573.961	62.67
574.294	62.67
574.627	62.86
574.961	62.89
575.294	62.85
575.627	62.96
575.96	62.92
576.293	62.72
576.626	62.69
576.959	62.83
577.292	62.95
577.624	62.83
577.957	62.91
578.29	62.99
578.623	62.93
578.955	62.93
579.288	62.9
579.62	62.84
579.953	62.68
580.285	62.71
580.618	62.72
580.95	62.82
581.282	62.81
581.615	62.86
581.947	62.75
582.279	62.83
582.611	62.74
582.943	62.71
583.275	62.73
583.607	62.94
583.939	62.72
584.271	62.7
584.603	62.93
584.935	62.96
585.267	62.83
585.598	62.84
585.93	63
586.262	62.99
586.593	63.01
586.925	63.1
587.256	63.04
587.588	63.11
587.919	63.27
588.25	63.4
588.582	63.55
588.913	63.74
589.244	63.83
589.575	63.81
589.907	63.87
590.238	63.96
590.569	64.04
590.9	64.18
591.231	64.16
591.562	63.99
591.892	63.78
592.223	63.84
592.554	64.01
592.885	63.92
593.215	63.99
593.546	63.89
593.877	63.8
594.207	63.64
594.538	63.74
594.868	63.71
595.198	63.74
595.529	63.74
595.859	63.66
596.189	63.73
596.52	63.71
596.85	63.7
597.18	63.43
597.51	63.35
597.84	63.29
598.17	63.29
598.5	63.34
598.83	63.31
599.16	63.39
599.489	63.4
599.819	63.7
600.149	63.7
600.479	63.7
600.808	63.64
601.138	63.59
601.467	63.48
601.797	63.59
602.126	63.55
602.456	63.69
602.785	63.7
603.114	63.72
603.443	63.77
603.773	63.86
604.102	63.9
604.431	63.86
604.76	63.85
605.089	63.76
605.418	63.85
605.747	63.84
606.076	63.86
606.405	63.66
606.733	63.64
607.062	63.55
607.391	63.37
607.72	63.16
608.048	62.77
608.377	62.77
608.705	62.82
609.034	62.75
609.362	62.93
609.69	63.09
610.019	63.03
610.347	63.08
610.675	63.14
611.004	63.16
611.332	63.13
611.66	63.09
611.988	62.89
612.316	63.07
612.644	62.92
612.972	62.88
613.3	62.92
613.627	63.1
613.955	63.18
614.283	63.11
614.611	63.13
614.938	63.21
615.266	63.39
615.593	63.59
615.921	63.66
616.248	63.96
616.576	64.07
616.903	64.19
617.23	64.27
617.558	64.11
617.885	63.97
618.212	64.01
618.539	64.11
618.866	63.79
619.193	63.54
619.52	63.58
619.847	63.54
620.174	63.99
620.501	63.78
620.828	63.95
621.155	64.22
621.481	64.19
621.808	63.99
622.135	63.89
622.461	63.72
622.788	63.96
623.114	63.64
623.441	63.05
623.767	62.78
624.093	63.01
624.42	62.81
624.746	62.65
625.072	62.39
625.398	62.71
625.725	63.1
626.051	63.13
626.377	63.36
626.703	63.15
627.029	63.27
627.354	63.41
627.68	63.18
628.006	63.16
628.332	62.81
628.658	62.66
628.983	62.34
629.309	62.19
629.634	62.13
629.96	62.07
630.285	62.38
630.611	62.7
630.936	62.51
631.262	63.05
631.587	63.82
631.912	64.25
632.237	64.45
632.562	65.03
632.887	65.2
633.213	65.18
633.538	64.8
633.863	64.29
634.187	64.02
634.512	63.74
634.837	63.76
635.162	63.55
635.487	63.38
635.811	64.16
636.136	64.35
636.461	64.3
636.785	64.72
637.11	64.85
637.434	64.68
637.758	64.5
638.083	64.2
638.407	64.04
638.731	63.88
639.056	63.7
639.38	63.24
639.704	63.04
640.028	62.52
640.352	62.62
640.676	62.22
641	61.99
641.324	62.19
641.648	62.1
641.972	62.16
642.295	62.56
642.619	63.04
642.943	62.9
643.266	62.96
643.59	63.07
643.913	61.99
644.237	61.94
644.56	61.83
644.884	61.34
645.207	61.17
645.53	61.26
645.854	61.31
646.177	61.72
646.5	61.59
646.823	62
647.146	62.27
647.469	62.4
647.792	62.18
648.115	62.43
648.438	62.17
648.761	63.69
649.084	64.43
649.406	64.26
649.729	63.85
650.052	63.88
650.374	63.64
650.697	63.51
651.019	63.56
651.342	63.66
651.664	63.7
651.987	63.84
652.309	63.86
652.631	64.02
652.953	64.22
653.276	64.29
653.598	64.23
653.92	64.42
654.242	64.35
654.564	64.27
654.886	64.21
655.208	64.18
655.53	64.1
655.851	64.17
656.173	64.27
656.495	64.32
656.816	63.69
657.138	63.17
657.46	63.11
657.781	63.35
658.103	63.1
658.424	63.79
658.746	64.04
659.067	63.93
659.388	63.91
659.709	63.6
660.031	63.45
660.352	62.51
660.673	61.61
660.994	60.76
661.315	61.6
661.636	61.69
661.957	61.36
662.278	61.25
662.599	61.44
662.919	60.83
663.24	61.06
663.561	61.03
663.881	60.8
664.202	60.23
664.523	59.32
664.843	59.33
665.164	58.77
665.484	58.29
665.804	58.68
666.125	58.91
666.445	59.47
666.765	59.14
667.085	59.38
667.405	59.56
667.726	60.01
668.046	60.28
668.366	60.59
668.686	61.05
669.005	60.86
669.325	59.63
669.645	59.21
669.965	58.8
670.285	59.46
670.604	59.4
670.924	59.69
671.243	59.84
671.563	59.64
671.882	59.47
672.202	59.27
672.521	60.04
672.841	60.02
673.16	60.29
673.479	60.1
673.798	60.31
674.117	60.83
674.437	59.69
674.756	60.03
675.075	59.71
675.394	58.72
675.713	58.14
676.031	58.4
676.35	58.6
676.669	58.4
676.988	59.71
677.306	59.51
677.625	60.2
677.944	60.56
678.262	60.37
678.581	60.67
678.899	61.08
679.218	60.69
679.536	60.76
679.854	60.99
680.172	60.74
680.491	60.26
680.809	60.33
681.127	60.48
681.445	61.07
681.763	60.83
682.081	60.31
682.399	60.29
682.717	60
683.035	60.18
683.352	60.28
683.67	60.53
683.988	60.59
684.306	60.78
684.623	60.61
684.941	59.78
685.258	60.5
685.576	60.08
685.893	60.32
686.211	60.44
686.528	60.43
686.845	60.62
687.162	60.99
687.48	61.23
687.797	61.38
688.114	61.78
688.431	62.05
688.748	61.38
689.065	61.66
689.382	62.14
689.699	61.82
690.015	61.83
690.332	62.98
690.649	63.47
690.966	63.96
691.282	64.11
691.599	64.13
691.915	63.2
692.232	63.2
692.548	63.62
692.865	63.22
693.181	63.09
693.497	63.1
693.813	62.93
694.13	62.66
694.446	62.63
694.762	61.78
695.078	60.96
695.394	61.62
695.71	61.66
696.026	61.11
696.342	60.6
696.658	62.07
696.973	62.25
697.289	61.2
697.605	61.6
697.92	62.12
698.236	61.83
698.551	60.67
698.867	59.88
699.182	61.26
699.498	61.63
699.813	62.3
700.128	61.88
700.444	62.84
700.759	64.62
701.074	64.9
701.389	66.41
701.704	65.97
702.019	65.48
702.334	65.93
702.649	65.81
702.964	66.75
703.279	66.29
703.594	67.01
703.908	67.71
704.223	67.58
704.538	66.92
704.852	65.76
705.167	65.34
705.481	65.33
705.796	64.94
706.11	63.95
706.425	65.61
706.739	66.34
707.053	65.28
707.368	64.94
707.682	65.02
707.996	65.34
708.31	64
708.624	63.56
708.938	63.38
709.252	61.86
709.566	62.41
709.88	62.71
710.193	61.65
710.507	62.98
710.821	62.95
711.135	63.35
711.448	62.19
711.762	61.76
712.075	61.58
712.389	62.01
712.702	63.11
713.015	64.34
713.329	63.99
713.642	64.24
713.955	65.19
714.269	65.11
714.582	64.4
714.895	64.79
715.208	65.95
715.521	65.88
715.834	65.92
716.147	67.01
716.459	66.89
716.772	66.81
717.085	67.14
717.398	66.28
717.71	65.62
718.023	65.41
718.336	64.4
718.648	64.62
718.961	62.78
719.273	62.85
719.585	63.71
719.898	65.78
720.21	64.79
720.522	64.4
720.834	64.47
721.147	64.93
721.459	63.47
721.771	64.02
722.083	63.53
722.395	64.27
722.707	63.72
723.019	61.87
723.33	61.45
723.642	61.07
723.954	60.99
724.265	61.69
724.577	61.09
724.889	61.07
725.2	61.41
725.512	62.75
725.823	63.69
726.135	63.63
726.446	63.09
726.757	64.79
727.068	66.17
727.38	66.67
727.691	66.14
728.002	66.75
728.313	67.71
728.624	67.33
728.935	66.82
729.246	68.61
729.557	68.5
729.867	68.19
730.178	67.76
730.489	68.96
730.8	70.47
731.11	71.66
731.421	71.27
731.731	71.32
732.042	70.97
732.352	71.95
732.663	72.63
732.973	73.54
733.283	72.06
733.594	72.44
733.904	72.75
734.214	73.1
734.524	72.72
734.834	73.12
735.144	72.36
735.454	72.37
735.764	72.83
736.074	72.08
736.384	72.81
736.694	73.29
737.003	71.81
737.313	72.06
737.623	72.44
737.932	72.88
738.242	72.18
738.551	71.8
738.861	71.03
739.17	72.37
739.479	72.46
739.789	72.96
740.098	72.13
740.407	71.82
740.716	72.74
741.025	74.62
741.334	74.25
741.643	73.31
741.952	72.61
742.261	71.37
742.57	69.22
742.879	69.85
743.188	69.13
743.497	68.06
743.805	68.71
744.114	69.29
744.422	67.44
744.731	68.82
745.04	67.81
745.348	69.58
745.656	66.97
745.965	69.02
746.273	68.28
746.581	68.04
746.889	66.03
747.198	65.45
747.506	65.8
747.814	66.91
748.122	65.69
748.43	62.04
748.738	62.75
749.046	62.82
749.353	64.21
749.661	66.9
749.969	69.77
750.277	69.52
750.584	70.39
750.892	70.75
751.199	73
751.507	71.44
751.814	70.29
752.122	72.98
752.429	71.32
752.736	71.39
753.044	68.93
753.351	69.57
753.658	69
753.965	69.77
754.272	70.38
754.579	71.38
754.886	71.22
755.193	71.26
755.5	69.71
755.807	70.65
756.114	71.27
756.42	71.04
756.727	70.46
757.034	71.47
757.34	68.2
757.647	65.88
757.953	65.96
758.26	63.75
758.566	63.86
758.872	62.2
759.179	63.59
759.485	62.44
759.791	60.97
760.097	62.14
760.403	60.74
760.709	60.85
761.015	62.28
761.321	63.25
761.627	64.98
761.933	63.25
762.239	62.17
762.545	61.21
762.851	58.18
763.156	59.8
763.462	61.68
763.767	60.83
764.073	59.67
764.378	59.15
764.684	59.98
764.989	61.57
765.295	63.27
765.6	63.98
765.905	68.33
766.21	70.37
766.515	67.97
766.821	69.14
767.126	70.51
767.431	73.01
767.736	71.96
768.041	72.82
768.345	70.97
768.65	68.66
768.955	59.68
769.26	54.8
769.564	58.72
769.869	59.99
770.174	66.7
770.478	74.7
770.783	70.36
771.087	69.63
771.391	78.02
771.696	85.33
772	93.13
772.304	93.21
772.608	93.73
772.913	94.65
773.217	89.66
773.521	89.14
773.825	83.3
774.129	84.97
774.433	79.55
774.736	73.64
775.04	67.49
775.344	73.49
775.648	73.05
775.951	74.8
776.255	79.94
776.559	83.53
776.862	85.17
777.166	86.64
777.469	94.74
777.772	84.81
778.076	78.19
778.379	81.76
778.682	75.24
778.985	73.93
779.289	66.65
779.592	64.46
779.895	66.04
780.198	66.95
780.501	66.24
780.804	68.93
781.106	63.38
781.409	54.11
781.712	55.14
782.015	54.76
782.317	61.41
782.62	64.18
782.923	59.4
783.225	58.58
783.527	65.03
783.83	57.2
784.132	69.22
784.435	74.6
784.737	71.7
785.039	55.81
785.341	60.16
785.643	58.09
785.945	52.49
786.248	59.4
786.55	65.34
786.851	67.13
787.153	54.62
787.455	48.29
787.757	53.55
788.059	51.63
788.36	47.64
788.662	48.19
788.964	75.91
789.265	70.21
789.567	70.46
789.868	63.46
790.17	58.36
790.471	61.37
790.772	59.65
791.074	45.3
791.375	65.16
791.676	46.84
791.977	34.19
792.278	30.05
792.579	29.68
792.88	17.79
793.181	33.14
793.482	36.78
793.783	22.77
794.083	15.88
794.384	22.63
794.685	39.47
794.986	50.8
795.286	41.23
795.587	48.01
795.887	48.12
796.188	49.1
796.488	32.77
796.788	33.78
797.089	31.31
797.389	41.81
797.689	49.45
797.989	48.57
798.289	51.65
798.589	49.81
798.889	36.99
799.189	42.19
799.489	55.58
799.789	48.45
800.089	40.16
800.389	41.84
800.688	30.53
800.988	24.32
801.288	35.85
801.587	29.83
801.887	18.91
802.186	-6.24
802.486	-10.52
802.785	-15.37
803.085	-20.16
803.384	-14.71
803.683	-23.78
803.982	-37.28
804.281	-32.03
804.58	-19.94
804.879	-148.12
805.178	-238.87
805.477	-118.62
805.776	-114.31
806.075	-163.15
806.374	-99.33
806.673	-134.35
806.971	-299.06
807.27	-2095.56
807.569	-2663.22
807.867	-1194.12
808.166	427.55
808.464	279.12
808.763	132.14
809.061	147.92
809.359	156.55
809.658	126.49
809.956	100.33
810.254	73.61
810.552	76.28
810.85	48.06
811.148	47.73
811.446	35.75
811.744	41.28
812.042	49.69
812.34	33.99
812.638	-1.73
812.935	-11.12
813.233	-3.88
813.531	5.04
813.828	24.7
814.126	-22.61
814.423	-75.02
814.721	-139.36
815.018	-82.76
815.316	12.07
815.613	55.85
815.91	75.72
816.207	38.6
816.504	6.88
816.802	-0.25
817.099	26.54
817.396	-22.32
817.693	-32.62
817.99	-48.12
818.286	25.34
818.583	180
818.88	-241.39
819.177	-175.85
819.473	-385.35
819.77	-406.34
820.067	-1131.84
820.363	-2721.92
820.66	954.64
820.956	-829.07
821.252	7105.13
821.549	-2034.31
821.845	-1721.49
822.141	1084.43
822.437	403.95
822.734	746.95
823.03	-1384.02
823.326	-416.3
823.622	-416.7
823.918	-3177.19
824.213	-376.87
824.509	-448.15
824.805	-58.41
825.101	1.3
825.397	51.1
825.692	106.69
825.988	111.4
826.283	179.32
826.579	505.19
826.874	-2886.41
827.17	-7130.77
827.465	853.88
827.76	501.83
828.056	518.67
828.351	1753.01
828.646	504.72
828.941	683.27
829.236	612.25
829.531	401.85
829.826	305.46
830.121	299.29
830.416	368.6
830.711	333.28
831.006	314.47
831.3	338.68
831.595	226.1
831.89	180.22
832.184	139.03
832.479	148.35
832.773	149.45
833.068	132.63
833.362	116.25
833.656	111.26
833.951	76.95
834.245	81.44
834.539	104.46
834.833	122.17
835.127	91.73
835.421	77.75
835.715	87.71
836.009	73.65
836.303	66.98
836.597	60.19
836.891	55.45
837.185	32.09
837.478	45.2
837.772	44.65
838.066	45.57
838.359	58.71
838.653	64.9
838.946	63.72
839.24	80.73
839.533	89.33
839.826	130.47
840.119	111.3
840.413	86.27
840.706	111.44
840.999	99.41
841.292	165.27
841.585	156.07
841.878	110.41
842.171	93.89
842.464	160.31
842.757	135.76
843.049	124.6
843.342	132.66
843.635	173.21
843.927	210.32
844.22	222.23
844.513	255.04
844.805	454.5
845.098	624.24
845.39	737.18
845.682	608.84
845.975	934.72
846.267	360.78
846.559	267.54
846.851	257.08
847.143	154.64
847.435	222.12
847.727	226.02
848.019	356.83
848.311	782.99
848.603	960.09
848.895	-517.74
849.186	-110.78
849.478	-7778.26
849.77	456.23
850.061	1069.96
850.353	-1852.94
850.645	-271.95
850.936	-150.37
851.227	-20757.14
851.519	-503.22
851.81	467.28
852.101	358.05
852.393	1414.29
852.684	-1820.53
852.975	-597.14
853.266	-248.73
853.557	-168.23
853.848	-122.27
854.139	-47.95
854.43	-84.54
854.72	-126.91
855.011	-171.54
855.302	-122.55
855.593	-135.26
855.883	-321.78
856.174	-243.29
856.464	-776.5
856.755	923.78
857.045	546.68
857.336	429.09
857.626	-1247.13
857.916	751.24
858.206	-4856.52
858.497	-108.67
858.787	-149.13
859.077	-217.36
859.367	-34.79
859.657	-3.82
859.947	40.12
860.237	-387.59
860.527	-101.5
860.816	-34.53
861.106	-17.78
861.396	-8.31
861.685	-60.44
861.975	-78.66
862.265	-106.36
862.554	81.21
862.844	-339.34
863.133	-150.95
863.422	-121.86
863.712	-67.81
864.001	-1.64
864.29	16.59
864.579	22.68
864.868	4.36
865.157	-20.03
865.446	-28.08
865.735	-61.92
866.024	3.63
866.313	4.48
866.602	-25.71
866.891	-14.56
867.179	-8.79
867.468	-56
