Data from T2_Reflection__22__19-02-32-259.txt Node

Date: Fri Jun 04 19:02:32 CEST 2021
User: mabdelazizm
Spectrometer: FLMS18565
Trigger mode: 0
Integration Time (sec): 2.000000E0
Scans to average: 1
Electric dark correction enabled: true
Nonlinearity correction enabled: false
Boxcar width: 12
XAxis mode: Wavelengths
Number of Pixels in Spectrum: 2048
>>>>>Begin Spectral Data<<<<<
179.071	4.07
179.452	14.17
179.833	-62.79
180.214	-63.46
180.595	-118.37
180.977	-117.49
181.358	-78.01
181.739	-76.54
182.12	-58.18
182.501	-74.36
182.882	-159.04
183.262	-505.71
183.643	-93.18
184.024	-98.43
184.405	-56.96
184.786	-49.51
185.166	-66.59
185.547	-35.69
185.927	-2.13
186.308	-7.75
186.689	3.37
187.069	-4.87
187.449	-16.06
187.83	-22.06
188.21	-22.71
188.59	-15.88
188.971	-17.62
189.351	-10.91
189.731	-11.79
190.111	-5.75
190.491	-7.5
190.871	-8.78
191.251	-7.83
191.631	-4.77
192.011	-3.81
192.391	-0.07
192.771	0.33
193.151	-2.18
193.531	2.83
193.91	4.88
194.29	4.46
194.67	5.53
195.049	2.76
195.429	-0.28
195.808	-0.44
196.188	-0.57
196.567	-0.2
196.946	4.03
197.326	3.72
197.705	3
198.084	0.43
198.464	0.28
198.843	3.4
199.222	3.25
199.601	1.73
199.98	0.26
200.359	0.83
200.738	1.53
201.117	-0.9
201.496	-3.03
201.875	-2.16
202.254	-2.91
202.632	-2.02
203.011	-1.51
203.39	-3.67
203.768	-0.26
204.147	2.22
204.525	2.14
204.904	1.62
205.282	3.34
205.661	0.81
206.039	2.68
206.418	-0.21
206.796	1.57
207.174	3.13
207.552	3.4
207.931	1.7
208.309	-0.82
208.687	0.88
209.065	1.31
209.443	2.46
209.821	0.68
210.199	-1.5
210.577	-1.16
210.954	1.98
211.332	0.6
211.71	0.22
212.088	2.03
212.465	0.63
212.843	0.42
213.221	0.41
213.598	-1.6
213.976	-2.76
214.353	-2.51
214.731	-3.88
215.108	-2.99
215.485	-4.06
215.863	-3.51
216.24	-5.23
216.617	-6.28
216.994	-6.51
217.371	-5.59
217.749	-5.85
218.126	-6.21
218.503	-5.21
218.88	-4.97
219.256	-3.71
219.633	-3.23
220.01	-3.46
220.387	-3.42
220.764	-2.45
221.14	-1.42
221.517	-1.98
221.894	-1.86
222.27	-1.38
222.647	-2.23
223.023	-2.03
223.4	-1.21
223.776	-0.67
224.153	-0.9
224.529	-1.1
224.905	-0.45
225.282	-0.09
225.658	-0.1
226.034	0
226.41	0.48
226.786	0.63
227.162	0.97
227.538	0.63
227.914	0.56
228.29	0.37
228.666	0.37
229.042	0.27
229.418	0.64
229.793	0.33
230.169	0.3
230.545	0.01
230.92	-0.05
231.296	0.01
231.672	0.01
232.047	0.09
232.422	0.1
232.798	0.2
233.173	0.03
233.549	0.2
233.924	0.39
234.299	0.38
234.674	0.2
235.05	0.18
235.425	0.26
235.8	0.27
236.175	0.24
236.55	0.34
236.925	0.43
237.3	0.51
237.675	0.6
238.049	0.53
238.424	0.6
238.799	0.64
239.174	0.66
239.548	0.63
239.923	0.71
240.297	0.7
240.672	0.69
241.046	0.76
241.421	0.78
241.795	0.79
242.17	0.73
242.544	0.8
242.918	0.76
243.293	0.77
243.667	0.75
244.041	0.87
244.415	0.93
244.789	0.96
245.163	0.96
245.537	0.98
245.911	0.96
246.285	0.98
246.659	0.99
247.033	0.95
247.406	1.01
247.78	1.08
248.154	1.04
248.528	1.1
248.901	1.09
249.275	1.06
249.648	1.11
250.022	1.1
250.395	1.03
250.769	0.99
251.142	1.01
251.515	1.05
251.888	1.02
252.262	1.05
252.635	1.02
253.008	1.04
253.381	1.05
253.754	1.05
254.127	1.04
254.5	1.03
254.873	1.02
255.246	0.97
255.619	0.98
255.992	0.92
256.364	0.93
256.737	0.9
257.11	0.84
257.483	0.81
257.855	0.82
258.228	0.84
258.6	0.85
258.973	0.89
259.345	0.93
259.718	0.92
260.09	0.92
260.462	0.9
260.834	0.81
261.207	0.81
261.579	0.76
261.951	0.77
262.323	0.68
262.695	0.69
263.067	0.67
263.439	0.66
263.811	0.68
264.183	0.69
264.555	0.74
264.927	0.71
265.298	0.7
265.67	0.64
266.042	0.63
266.413	0.64
266.785	0.61
267.156	0.57
267.528	0.56
267.899	0.54
268.271	0.49
268.642	0.4
269.013	0.44
269.385	0.44
269.756	0.48
270.127	0.51
270.498	0.53
270.87	0.55
271.241	0.54
271.612	0.56
271.983	0.56
272.354	0.53
272.724	0.52
273.095	0.51
273.466	0.48
273.837	0.49
274.208	0.48
274.578	0.48
274.949	0.53
275.32	0.55
275.69	0.55
276.061	0.55
276.431	0.57
276.802	0.53
277.172	0.55
277.542	0.51
277.913	0.56
278.283	0.57
278.653	0.63
279.023	0.58
279.394	0.63
279.764	0.61
280.134	0.59
280.504	0.61
280.874	0.62
281.244	0.56
281.614	0.49
281.983	0.43
282.353	0.47
282.723	0.55
283.093	0.51
283.462	0.5
283.832	0.53
284.202	0.53
284.571	0.47
284.941	0.45
285.31	0.51
285.68	0.5
286.049	0.5
286.418	0.49
286.788	0.52
287.157	0.48
287.526	0.5
287.895	0.46
288.264	0.47
288.633	0.41
289.002	0.38
289.371	0.45
289.74	0.43
290.109	0.43
290.478	0.42
290.847	0.51
291.216	0.56
291.585	0.52
291.953	0.42
292.322	0.42
292.691	0.4
293.059	0.35
293.428	0.35
293.796	0.41
294.165	0.42
294.533	0.38
294.901	0.35
295.27	0.37
295.638	0.35
296.006	0.34
296.374	0.35
296.743	0.3
297.111	0.26
297.479	0.25
297.847	0.28
298.215	0.29
298.583	0.24
298.95	0.24
299.318	0.24
299.686	0.25
300.054	0.19
300.422	0.18
300.789	0.14
301.157	0.18
301.525	0.17
301.892	0.2
302.26	0.2
302.627	0.21
302.994	0.13
303.362	0.17
303.729	0.18
304.097	0.19
304.464	0.18
304.831	0.21
305.198	0.19
305.565	0.21
305.932	0.2
306.299	0.19
306.666	0.13
307.033	0.11
307.4	0.16
307.767	0.13
308.134	0.08
308.501	0.13
308.867	0.13
309.234	0.21
309.601	0.23
309.967	0.23
310.334	0.25
310.701	0.21
311.067	0.19
311.433	0.22
311.8	0.15
312.166	0.22
312.533	0.14
312.899	0.15
313.265	0.17
313.631	0.19
313.997	0.18
314.363	0.19
314.729	0.19
315.096	0.15
315.461	0.18
315.827	0.24
316.193	0.24
316.559	0.22
316.925	0.19
317.291	0.25
317.656	0.22
318.022	0.2
318.388	0.18
318.753	0.15
319.119	0.21
319.484	0.23
319.85	0.23
320.215	0.24
320.581	0.24
320.946	0.3
321.311	0.25
321.676	0.3
322.042	0.26
322.407	0.22
322.772	0.23
323.137	0.26
323.502	0.33
323.867	0.34
324.232	0.34
324.597	0.34
324.962	0.32
325.327	0.31
325.691	0.31
326.056	0.36
326.421	0.32
326.785	0.37
327.15	0.32
327.514	0.28
327.879	0.27
328.243	0.25
328.608	0.16
328.972	0.2
329.337	0.19
329.701	0.17
330.065	0.13
330.429	0.19
330.794	0.22
331.158	0.23
331.522	0.2
331.886	0.15
332.25	0.11
332.614	0.05
332.978	0.03
333.342	0.08
333.705	0.09
334.069	0.07
334.433	0.06
334.797	0.03
335.16	0.02
335.524	0.01
335.887	0.01
336.251	0.09
336.614	0.07
336.978	0.07
337.341	0.02
337.705	0.03
338.068	0.02
338.431	-0.01
338.794	-0.05
339.158	-0.01
339.521	-0.07
339.884	-0.13
340.247	-0.14
340.61	-0.1
340.973	-0.05
341.336	-0.05
341.699	-0.14
342.062	-0.18
342.424	-0.23
342.787	-0.28
343.15	-0.27
343.512	-0.23
343.875	-0.21
344.238	-0.19
344.6	-0.24
344.963	-0.3
345.325	-0.34
345.688	-0.36
346.05	-0.33
346.412	-0.32
346.775	-0.31
347.137	-0.33
347.499	-0.31
347.861	-0.25
348.223	-0.25
348.585	-0.24
348.947	-0.25
349.309	-0.25
349.671	-0.19
350.033	-0.24
350.395	-0.29
350.757	-0.25
351.118	-0.3
351.48	-0.29
351.842	-0.28
352.203	-0.28
352.565	-0.37
352.927	-0.41
353.288	-0.44
353.65	-0.41
354.011	-0.39
354.372	-0.39
354.734	-0.34
355.095	-0.37
355.456	-0.4
355.817	-0.39
356.179	-0.42
356.54	-0.43
356.901	-0.52
357.262	-0.59
357.623	-0.65
357.984	-0.54
358.345	-0.56
358.705	-0.66
359.066	-0.67
359.427	-0.64
359.788	-0.62
360.148	-0.56
360.509	-0.53
360.87	-0.49
361.23	-0.48
361.591	-0.41
361.951	-0.46
362.312	-0.47
362.672	-0.42
363.032	-0.4
363.393	-0.45
363.753	-0.49
364.113	-0.52
364.473	-0.5
364.833	-0.51
365.193	-0.48
365.553	-0.43
365.913	-0.38
366.273	-0.35
366.633	-0.34
366.993	-0.41
367.353	-0.45
367.713	-0.42
368.072	-0.41
368.432	-0.36
368.792	-0.37
369.151	-0.39
369.511	-0.4
369.87	-0.4
370.23	-0.39
370.589	-0.39
370.949	-0.32
371.308	-0.29
371.667	-0.31
372.027	-0.29
372.386	-0.28
372.745	-0.28
373.104	-0.27
373.463	-0.25
373.822	-0.21
374.181	-0.22
374.54	-0.26
374.899	-0.17
375.258	-0.18
375.617	-0.14
375.975	-0.17
376.334	-0.13
376.693	-0.06
377.052	-0.02
377.41	-0.09
377.769	-0.09
378.127	-0.07
378.486	-0.1
378.844	-0.14
379.202	-0.16
379.561	-0.21
379.919	-0.19
380.277	-0.2
380.636	-0.2
380.994	-0.25
381.352	-0.22
381.71	-0.22
382.068	-0.19
382.426	-0.23
382.784	-0.23
383.142	-0.21
383.5	-0.21
383.857	-0.27
384.215	-0.29
384.573	-0.33
384.931	-0.33
385.288	-0.4
385.646	-0.46
386.003	-0.48
386.361	-0.5
386.718	-0.49
387.076	-0.48
387.433	-0.47
387.791	-0.5
388.148	-0.53
388.505	-0.5
388.862	-0.55
389.22	-0.55
389.577	-0.51
389.934	-0.51
390.291	-0.52
390.648	-0.47
391.005	-0.5
391.362	-0.52
391.718	-0.58
392.075	-0.64
392.432	-0.6
392.789	-0.65
393.145	-0.65
393.502	-0.62
393.859	-0.53
394.215	-0.5
394.572	-0.54
394.928	-0.58
395.285	-0.55
395.641	-0.59
395.997	-0.54
396.354	-0.56
396.71	-0.47
397.066	-0.45
397.422	-0.42
397.778	-0.42
398.134	-0.36
398.491	-0.43
398.846	-0.43
399.202	-0.39
399.558	-0.5
399.914	-0.43
400.27	-0.41
400.626	-0.37
400.981	-0.35
401.337	-0.37
401.693	-0.34
402.048	-0.35
402.404	-0.35
402.759	-0.4
403.115	-0.39
403.47	-0.42
403.826	-0.35
404.181	-0.35
404.536	-0.3
404.892	-0.4
405.247	-0.37
405.602	-0.46
405.957	-0.43
406.312	-0.44
406.667	-0.41
407.022	-0.48
407.377	-0.42
407.732	-0.44
408.087	-0.46
408.442	-0.38
408.796	-0.44
409.151	-0.38
409.506	-0.38
409.86	-0.41
410.215	-0.41
410.57	-0.37
410.924	-0.29
411.279	-0.28
411.633	-0.32
411.987	-0.29
412.342	-0.15
412.696	-0.15
413.05	-0.18
413.404	-0.2
413.758	-0.07
414.113	-0.05
414.467	-0.02
414.821	-0.04
415.175	-0.07
415.529	-0.16
415.882	-0.17
416.236	-0.19
416.59	-0.23
416.944	-0.28
417.298	-0.25
417.651	-0.26
418.005	-0.28
418.358	-0.25
418.712	-0.26
419.065	-0.33
419.419	-0.34
419.772	-0.45
420.126	-0.38
420.479	-0.34
420.832	-0.36
421.185	-0.36
421.539	-0.44
421.892	-0.4
422.245	-0.39
422.598	-0.43
422.951	-0.41
423.304	-0.42
423.657	-0.4
424.01	-0.4
424.363	-0.36
424.715	-0.36
425.068	-0.4
425.421	-0.37
425.773	-0.43
426.126	-0.35
426.479	-0.35
426.831	-0.35
427.184	-0.41
427.536	-0.32
427.889	-0.35
428.241	-0.36
428.593	-0.27
428.945	-0.33
429.298	-0.35
429.65	-0.35
430.002	-0.38
430.354	-0.3
430.706	-0.31
431.058	-0.31
431.41	-0.34
431.762	-0.39
432.114	-0.41
432.466	-0.46
432.817	-0.44
433.169	-0.4
433.521	-0.38
433.872	-0.28
434.224	-0.26
434.576	-0.21
434.927	-0.32
435.279	-0.37
435.63	-0.39
435.981	-0.27
436.333	-0.32
436.684	-0.2
437.035	-0.25
437.387	-0.28
437.738	-0.32
438.089	-0.24
438.44	-0.27
438.791	-0.35
439.142	-0.35
439.493	-0.39
439.844	-0.37
440.195	-0.31
440.545	-0.3
440.896	-0.31
441.247	-0.24
441.598	-0.25
441.948	-0.25
442.299	-0.33
442.649	-0.41
443	-0.43
443.35	-0.39
443.701	-0.35
444.051	-0.37
444.401	-0.4
444.752	-0.53
445.102	-0.55
445.452	-0.58
445.802	-0.61
446.152	-0.65
446.502	-0.59
446.852	-0.69
447.202	-0.67
447.552	-0.62
447.902	-0.65
448.252	-0.68
448.602	-0.37
448.952	-0.43
449.301	-0.38
449.651	-0.29
450.001	-0.36
450.35	-0.39
450.7	-0.37
451.049	-0.28
451.399	-0.25
451.748	-0.24
452.097	-0.14
452.447	-0.18
452.796	-0.1
453.145	-0
453.494	0.03
453.843	0.13
454.193	0.13
454.542	0.18
454.891	0.23
455.239	0.14
455.588	0.21
455.937	0.21
456.286	0.22
456.635	0.14
456.984	0.18
457.332	-0.18
457.681	-0.17
458.03	-0.14
458.378	-0.26
458.727	-0.3
459.075	-0.29
459.423	-0.25
459.772	-0.28
460.12	-0.31
460.468	-0.25
460.817	-0.31
461.165	-0.3
461.513	-0.4
461.861	-0.47
462.209	-0.42
462.557	-0.39
462.905	-0.52
463.253	-0.55
463.601	-0.54
463.949	-0.5
464.297	-0.54
464.644	-0.55
464.992	-0.58
465.34	-0.58
465.687	-0.54
466.035	-0.61
466.383	-0.51
466.73	-0.66
467.078	-0.63
467.425	-0.57
467.772	-0.5
468.12	-0.53
468.467	-0.5
468.814	-0.47
469.161	-0.51
469.508	-0.42
469.856	-0.45
470.203	-0.37
470.55	-0.4
470.897	-0.38
471.243	-0.46
471.59	-0.29
471.937	-0.2
472.284	-0.23
472.631	-0.27
472.977	-0.21
473.324	-0.16
473.671	-0.19
474.017	-0.15
474.364	-0.18
474.71	-0.07
475.057	-0.15
475.403	-0.07
475.749	-0.08
476.096	-0.07
476.442	-0.06
476.788	0.02
477.134	0.04
477.48	0.08
477.826	0.07
478.172	-0.04
478.518	0.04
478.864	0.07
479.21	0.13
479.556	0.07
479.902	0.11
480.248	0.14
480.593	0.1
480.939	0.05
481.285	0.13
481.63	0.12
481.976	0.1
482.321	0.15
482.667	0.23
483.012	0.26
483.357	0.3
483.703	0.32
484.048	0.41
484.393	0.5
484.738	0.45
485.084	0.38
485.429	0.32
485.774	0.31
486.119	0.35
486.464	0.41
486.808	0.46
487.153	0.48
487.498	0.45
487.843	0.41
488.188	0.52
488.532	0.57
488.877	0.62
489.222	0.76
489.566	0.92
489.911	1.09
490.255	1.18
490.6	1.3
490.944	1.43
491.288	1.51
491.633	1.71
491.977	1.82
492.321	2.02
492.665	2.08
493.009	2.22
493.353	2.55
493.697	2.79
494.041	3.04
494.385	3.28
494.729	3.48
495.073	3.81
495.417	4.09
495.76	4.36
496.104	4.73
496.448	5.11
496.791	5.43
497.135	5.81
497.479	6.19
497.822	6.56
498.165	6.98
498.509	7.34
498.852	7.82
499.196	8.32
499.539	8.78
499.882	9.29
500.225	9.77
500.568	10.29
500.911	10.7
501.254	11.28
501.597	11.84
501.94	12.35
502.283	12.92
502.626	13.48
502.969	14.14
503.312	14.73
503.654	15.22
503.997	15.79
504.34	16.46
504.682	17.02
505.025	17.67
505.367	18.33
505.71	18.85
506.052	19.47
506.395	20.21
506.737	20.85
507.079	21.55
507.421	22.22
507.764	22.86
508.106	23.4
508.448	24.05
508.79	24.74
509.132	25.32
509.474	26.06
509.816	26.63
510.158	27.28
510.499	27.84
510.841	28.47
511.183	29.13
511.525	29.62
511.866	30.28
512.208	30.93
512.549	31.54
512.891	32.18
513.232	32.94
513.574	33.68
513.915	34.24
514.256	34.91
514.598	35.57
514.939	36.05
515.28	36.58
515.621	37.14
515.962	37.51
516.303	38.1
516.644	38.82
516.985	39.45
517.326	39.89
517.667	40.43
518.008	40.86
518.349	41.42
518.69	41.96
519.03	42.5
519.371	42.99
519.712	43.42
520.052	43.97
520.393	44.32
520.733	44.74
521.074	45.24
521.414	45.68
521.754	46.11
522.095	46.39
522.435	46.72
522.775	47.13
523.115	47.37
523.455	47.66
523.795	47.97
524.135	48.26
524.475	48.66
524.815	48.96
525.155	49.33
525.495	49.55
525.835	49.89
526.175	50.19
526.514	50.53
526.854	50.82
527.194	51.04
527.533	51.35
527.873	51.67
528.212	52.01
528.552	52.32
528.891	52.73
529.23	53
529.57	53.3
529.909	53.72
530.248	53.88
530.587	54.21
530.927	54.45
531.266	54.54
531.605	54.77
531.944	54.92
532.283	55.27
532.621	55.43
532.96	55.81
533.299	56.03
533.638	56.16
533.977	56.42
534.315	56.66
534.654	56.85
534.992	57.06
535.331	57.18
535.67	57.45
536.008	57.74
536.346	57.85
536.685	57.72
537.023	57.72
537.361	57.98
537.7	58.18
538.038	58.19
538.376	58.04
538.714	58.2
539.052	58.2
539.39	58.46
539.728	58.57
540.066	58.68
540.404	58.96
540.741	59.17
541.079	59.34
541.417	59.38
541.755	59.54
542.092	59.55
542.43	59.44
542.767	59.6
543.105	59.64
543.442	59.71
543.78	59.89
544.117	59.81
544.454	59.86
544.792	59.96
545.129	60.26
545.466	60.37
545.803	60.25
546.14	60.36
546.477	60.57
546.814	60.66
547.151	60.58
547.488	60.6
547.825	60.6
548.162	60.85
548.499	60.99
548.835	61.12
549.172	61.13
549.509	61.27
549.845	61.36
550.182	61.27
550.518	61.31
550.855	61.36
551.191	61.26
551.528	61.33
551.864	61.41
552.2	61.32
552.537	61.49
552.873	61.5
553.209	61.59
553.545	61.64
553.881	61.74
554.217	61.83
554.553	61.82
554.889	61.86
555.225	61.87
555.561	62
555.896	62.23
556.232	62.34
556.568	62.39
556.903	62.46
557.239	62.42
557.575	62.45
557.91	62.42
558.245	62.58
558.581	62.82
558.916	62.89
559.252	63.23
559.587	63.32
559.922	63.48
560.257	63.57
560.592	63.76
560.928	63.86
561.263	64.02
561.598	64.02
561.933	64.11
562.267	64.09
562.602	64.23
562.937	64.44
563.272	64.57
563.607	64.74
563.941	65.19
564.276	65.31
564.611	65.34
564.945	65.43
565.28	65.56
565.614	65.42
565.949	65.52
566.283	65.56
566.617	65.59
566.951	65.61
567.286	65.82
567.62	65.83
567.954	66
568.288	65.88
568.622	65.92
568.956	65.98
569.29	66.13
569.624	66.09
569.958	66.22
570.292	66.22
570.626	66.46
570.959	66.53
571.293	66.54
571.627	66.61
571.96	66.61
572.294	66.47
572.627	66.42
572.961	66.53
573.294	66.56
573.627	66.64
573.961	66.78
574.294	66.79
574.627	66.91
574.961	66.99
575.294	67.09
575.627	67.19
575.96	67.2
576.293	66.97
576.626	67.13
576.959	67.21
577.292	67.3
577.624	67.18
577.957	67.24
578.29	67.18
578.623	67.2
578.955	67.18
579.288	67.15
579.62	67.24
579.953	67.18
580.285	67.19
580.618	67.31
580.95	67.38
581.282	67.41
581.615	67.44
581.947	67.35
582.279	67.46
582.611	67.47
582.943	67.33
583.275	67.37
583.607	67.46
583.939	67.39
584.271	67.38
584.603	67.64
584.935	67.62
585.267	67.52
585.598	67.46
585.93	67.55
586.262	67.58
586.593	67.72
586.925	67.79
587.256	67.63
587.588	67.61
587.919	67.57
588.25	67.65
588.582	67.79
588.913	67.79
589.244	67.8
589.575	67.79
589.907	67.85
590.238	67.82
590.569	67.86
590.9	68
591.231	68.22
591.562	68.14
591.892	67.88
592.223	67.85
592.554	67.86
592.885	67.93
593.215	67.93
593.546	67.89
593.877	67.85
594.207	67.78
594.538	67.83
594.868	67.83
595.198	67.8
595.529	67.88
595.859	67.88
596.189	68.05
596.52	68.16
596.85	68.16
597.18	68.17
597.51	68.22
597.84	68.23
598.17	68.24
598.5	68.38
598.83	68.27
599.16	68.25
599.489	68.18
599.819	68.15
600.149	68.21
600.479	68.17
600.808	68.09
601.138	68.05
601.467	68
601.797	68.16
602.126	68.19
602.456	68.35
602.785	68.28
603.114	68.19
603.443	68.29
603.773	68.32
604.102	68.33
604.431	68.11
604.76	67.97
605.089	67.87
605.418	67.74
605.747	67.72
606.076	67.74
606.405	67.61
606.733	67.53
607.062	67.55
607.391	67.28
607.72	67.12
608.048	67.04
608.377	66.91
608.705	67.04
609.034	67
609.362	67.05
609.69	67.22
610.019	66.99
610.347	67.02
610.675	66.93
611.004	66.94
611.332	66.94
611.66	66.95
611.988	66.83
612.316	66.96
612.644	66.82
612.972	66.9
613.3	66.86
613.627	66.77
613.955	66.77
614.283	66.52
614.611	66.49
614.938	66.37
615.266	66.45
615.593	66.67
615.921	66.73
616.248	66.85
616.576	66.86
616.903	66.75
617.23	66.72
617.558	66.57
617.885	66.36
618.212	66.41
618.539	66.5
618.866	66.22
619.193	65.99
619.52	66
619.847	65.9
620.174	65.98
620.501	65.7
620.828	65.79
621.155	65.47
621.481	65.36
621.808	65.5
622.135	65.43
622.461	65.52
622.788	65.47
623.114	65.49
623.441	64.81
623.767	64.8
624.093	64.74
624.42	64.33
624.746	64.7
625.072	64.56
625.398	64.84
625.725	64.99
626.051	64.84
626.377	64.57
626.703	64.18
627.029	64.54
627.354	64.56
627.68	64.3
628.006	64.09
628.332	64.22
628.658	64.32
628.983	64.23
629.309	64.48
629.634	64.51
629.96	64.24
630.285	64.32
630.611	64.14
630.936	64.53
631.262	64.92
631.587	65.6
631.912	65.96
632.237	66.34
632.562	66.97
632.887	66.84
633.213	66.88
633.538	67.21
633.863	66.69
634.187	66.78
634.512	67.17
634.837	67.28
635.162	67.26
635.487	66.98
635.811	67.3
636.136	67.61
636.461	67.36
636.785	67.42
637.11	67.51
637.434	67.19
637.758	67.12
638.083	66.99
638.407	66.71
638.731	66.78
639.056	66.04
639.38	66.18
639.704	66.94
640.028	66.3
640.352	66.32
640.676	66.15
641	66.08
641.324	66.04
641.648	65.45
641.972	65.61
642.295	65.64
642.619	65.69
642.943	65.64
643.266	65.55
643.59	66.06
643.913	65.82
644.237	65.75
644.56	65.36
644.884	65.85
645.207	65.74
645.53	65.67
645.854	66.1
646.177	66.52
646.5	66.42
646.823	66.6
647.146	67.03
647.469	66.51
647.792	65.43
648.115	65.58
648.438	65.64
648.761	66.48
649.084	66.4
649.406	66.53
649.729	66.38
650.052	66.22
650.374	66.05
650.697	66.02
651.019	66.08
651.342	66
651.664	66.07
651.987	66.15
652.309	66.08
652.631	66.36
652.953	66.2
653.276	66.11
653.598	66.16
653.92	66.15
654.242	66.07
654.564	66.07
654.886	66
655.208	65.92
655.53	65.87
655.851	65.9
656.173	66.04
656.495	66.07
656.816	65.56
657.138	65.54
657.46	65.14
657.781	64.73
658.103	64.41
658.424	64.6
658.746	64.05
659.067	64.08
659.388	63.77
659.709	62.93
660.031	62.76
660.352	62.67
660.673	61.38
660.994	60.97
661.315	61.9
661.636	62.2
661.957	61.74
662.278	61.84
662.599	61.32
662.919	61.07
663.24	60.85
663.561	60.81
663.881	60.61
664.202	59.44
664.523	58.26
664.843	58.56
665.164	57.67
665.484	57.73
665.804	57.76
666.125	57.95
666.445	58.37
666.765	58.98
667.085	58.38
667.405	58.64
667.726	58.76
668.046	58.92
668.366	58.44
668.686	58.99
669.005	58.67
669.325	57.98
669.645	57.07
669.965	57.14
670.285	57.11
670.604	57.69
670.924	57.47
671.243	58.41
671.563	58.4
671.882	58.75
672.202	58.51
672.521	59.1
672.841	58.33
673.16	58.38
673.479	58.34
673.798	58.07
674.117	58.1
674.437	57.44
674.756	57.58
675.075	57.77
675.394	57.48
675.713	57.38
676.031	57.42
676.35	57.8
676.669	57.52
676.988	58.21
677.306	58.45
677.625	59.54
677.944	59.72
678.262	59.98
678.581	59.68
678.899	60.84
679.218	59.77
679.536	59.85
679.854	60.2
680.172	60.52
680.491	60.33
680.809	61.35
681.127	61.18
681.445	61.35
681.763	61.38
682.081	61.08
682.399	60.79
682.717	60.47
683.035	60.95
683.352	60.87
683.67	60.62
683.988	60.49
684.306	60.42
684.623	60.8
684.941	60.43
685.258	60.18
685.576	60.1
685.893	60.46
686.211	60.25
686.528	60.81
686.845	60.61
687.162	61.43
687.48	61.75
687.797	61.65
688.114	61.97
688.431	62.32
688.748	60.67
689.065	61.05
689.382	61.58
689.699	62.25
690.015	62.56
690.332	63.38
690.649	63.81
690.966	63.66
691.282	64.4
691.599	64.5
691.915	64.13
692.232	64.81
692.548	65.31
692.865	65.45
693.181	65.94
693.497	66.36
693.813	65.36
694.13	65.97
694.446	65.5
694.762	64.71
695.078	63.35
695.394	63.42
695.71	63.5
696.026	63.4
696.342	63.12
696.658	65.06
696.973	65.87
697.289	64.47
697.605	64.36
697.92	64.63
698.236	65.12
698.551	64.62
698.867	64.3
699.182	64.15
699.498	64.4
699.813	64.81
700.128	65.79
700.444	65.42
700.759	66.22
701.074	65.57
701.389	64.98
701.704	65.74
702.019	65.1
702.334	66.43
702.649	67.09
702.964	68.83
703.279	68.5
703.594	69.29
703.908	69.64
704.223	69.73
704.538	69.35
704.852	68.17
705.167	68.02
705.481	68.27
705.796	68.56
706.11	67.21
706.425	66.84
706.739	67.21
707.053	66.44
707.368	67.07
707.682	66.91
707.996	66.17
708.31	65.36
708.624	65.7
708.938	66.39
709.252	66.87
709.566	66.42
709.88	67.05
710.193	65.14
710.507	65.29
710.821	65.18
711.135	65.61
711.448	64.37
711.762	63.46
712.075	64.2
712.389	63.68
712.702	64.31
713.015	65.25
713.329	64.72
713.642	64.92
713.955	66.52
714.269	67.99
714.582	68.62
714.895	68.98
715.208	68.72
715.521	70.44
715.834	70.66
716.147	72.13
716.459	71.48
716.772	71.18
717.085	70.36
717.398	71.1
717.71	69.82
718.023	70.43
718.336	69.43
718.648	68.53
718.961	67.76
719.273	68.58
719.585	69.71
719.898	69.34
720.21	68.86
720.522	68.48
720.834	68.71
721.147	69.79
721.459	68.9
721.771	68.3
722.083	68.15
722.395	66.9
722.707	67.65
723.019	66.89
723.33	64.62
723.642	64.69
723.954	64.59
724.265	64.77
724.577	64.54
724.889	65.34
725.2	64.94
725.512	65.52
725.823	65.27
726.135	65.36
726.446	65.94
726.757	66.81
727.068	66.87
727.38	66.42
727.691	66.89
728.002	69.01
728.313	68.99
728.624	69.9
728.935	68.4
729.246	68.39
729.557	68.89
729.867	69.07
730.178	69.01
730.489	69.89
730.8	71.4
731.11	71.88
731.421	70.06
731.731	68.84
732.042	67.99
732.352	67.49
732.663	67.51
732.973	68.28
733.283	67.72
733.594	68.15
733.904	68.52
734.214	68.78
734.524	68.6
734.834	68.37
735.144	67.15
735.454	66.66
735.764	65.43
736.074	66.07
736.384	65.26
736.694	65.73
737.003	65.91
737.313	66.46
737.623	65.32
737.932	66.11
738.242	65.54
738.551	63.46
738.861	63.57
739.17	64.75
739.479	65.88
739.789	66.07
740.098	66.39
740.407	65.42
740.716	66.21
741.025	67.49
741.334	66.83
741.643	69.46
741.952	68.97
742.261	67.59
742.57	68.49
742.879	70.25
743.188	70.7
743.497	70.73
743.805	70.87
744.114	70.1
744.422	70.31
744.731	70.6
745.04	67.53
745.348	70.12
745.656	68.5
745.965	68.6
746.273	68.64
746.581	69.79
746.889	71.13
747.198	71.58
747.506	72.14
747.814	71.79
748.122	71.65
748.43	68.97
748.738	69.11
749.046	70.32
749.353	68.53
749.661	67.72
749.969	68.18
750.277	65.35
750.584	65.05
750.892	64.7
751.199	64.89
751.507	63.92
751.814	63.1
752.122	63.6
752.429	64.98
752.736	67.09
753.044	63.21
753.351	64.24
753.658	62.17
753.965	63.53
754.272	63.89
754.579	63.54
754.886	63.2
755.193	63.83
755.5	63.05
755.807	64.72
756.114	64.24
756.42	63.35
756.727	62.29
757.034	61.88
757.34	63.93
757.647	63.54
757.953	62.98
758.26	64.15
758.566	63.32
758.872	62.7
759.179	64.35
759.485	63.8
759.791	61.76
760.097	61.06
760.403	58.66
760.709	61.56
761.015	60.9
761.321	62.29
761.627	60.56
761.933	58.19
762.239	57.71
762.545	55.12
762.851	54.47
763.156	57.42
763.462	56.18
763.767	55.48
764.073	55.32
764.378	54.23
764.684	52.85
764.989	49.38
765.295	50.41
765.6	52.77
765.905	53.65
766.21	51.26
766.515	49.35
766.821	46.88
767.126	47.56
767.431	50.71
767.736	50.53
768.041	55.38
768.345	51.88
768.65	52.84
768.955	48.33
769.26	48.28
769.564	49.94
769.869	48.16
770.174	51.22
770.478	50
770.783	46.48
771.087	41.64
771.391	42.44
771.696	40.92
772	52.39
772.304	48.17
772.608	48.11
772.913	50.29
773.217	42.22
773.521	43.47
773.825	41.87
774.129	48.88
774.433	45.56
774.736	41.41
775.04	36.58
775.344	35.14
775.648	28.31
775.951	31.34
776.255	30.6
776.559	32.88
776.862	38.45
777.166	43.34
777.469	38.81
777.772	34.39
778.076	35.94
778.379	38.18
778.682	39.28
778.985	37.07
779.289	37
779.592	32.07
779.895	34.12
780.198	35.98
780.501	33.75
780.804	41.17
781.106	35.31
781.409	38.02
781.712	36.07
782.015	29.68
782.317	29.57
782.62	33.91
782.923	36
783.225	32.46
783.527	33.26
783.83	23.73
784.132	29.33
784.435	26.84
784.737	8.46
785.039	13.81
785.341	31.7
785.643	32.68
785.945	20.77
786.248	17.8
786.55	24.24
786.851	31.64
787.153	25.38
787.455	28.49
787.757	35.18
788.059	32.25
788.36	19.42
788.662	15.82
788.964	24.36
789.265	20.89
789.567	32.62
789.868	34.28
790.17	31.23
790.471	31.13
790.772	31.82
791.074	26.15
791.375	38.41
791.676	36.89
791.977	38.93
792.278	56.98
792.579	55.49
792.88	33.89
793.181	33.77
793.482	45.36
793.783	40.5
794.083	39.94
794.384	24
794.685	27.11
794.986	20.37
795.286	-7.36
795.587	20.67
795.887	21.2
796.188	26
796.488	11.89
796.788	24.38
797.089	29.05
797.389	30.12
797.689	31.2
797.989	24.1
798.289	20.46
798.589	21.39
798.889	9.11
799.189	6.31
799.489	8.06
799.789	-2.62
800.089	2.04
800.389	2.17
800.688	1.35
800.988	-8.41
801.288	-4.91
801.587	-4.62
801.887	0.08
802.186	-1.72
802.486	15.56
802.785	18.04
803.085	-22.57
803.384	-18.53
803.683	-22.58
803.982	-21.7
804.281	-27.32
804.58	-27.17
804.879	-117.32
805.178	-205.2
805.477	-118.62
805.776	-107.34
806.075	-167.23
806.374	-98.26
806.673	-140
806.971	-269.12
807.27	-1716.3
807.569	-2221.84
807.867	-1449.58
808.166	735.47
808.464	591.58
808.763	254.76
809.061	253.95
809.359	323.32
809.658	340.17
809.956	304.14
810.254	245.8
810.552	212.61
810.85	195.75
811.148	203.4
811.446	219.06
811.744	278.01
812.042	254.85
812.34	247.55
812.638	260.59
812.935	209.16
813.233	216.24
813.531	278.16
813.828	248.53
814.126	247.47
814.423	302.48
814.721	376.92
815.018	350.44
815.316	357.08
815.613	365.7
815.91	393.93
816.207	339.9
816.504	283.38
816.802	440.99
817.099	349.86
817.396	506.29
817.693	622.42
817.99	886.53
818.286	624.6
818.583	-839.78
818.88	683.76
819.177	352.51
819.473	262.75
819.77	284.05
820.067	452.24
820.363	1836.99
820.66	-715.3
820.956	530.67
821.252	-4546.15
821.549	1200.73
821.845	1504.96
822.141	-1138.32
822.437	-246.48
822.734	-518.65
823.03	1124.85
823.326	250.95
823.622	388.37
823.918	3615.79
824.213	465.84
824.509	349.16
824.805	355.33
825.101	265.03
825.397	184.7
825.692	296.14
825.988	157.69
826.283	236.91
826.579	531.12
826.874	-4035.92
827.17	-9674.36
827.465	1023.29
827.76	578.81
828.056	608.28
828.351	1881.53
828.646	551.92
828.941	724.45
829.236	692.15
829.531	459.79
829.826	323.07
830.121	318.87
830.416	365.29
830.711	311.17
831.006	293.42
831.3	295.05
831.595	255.27
831.89	209.91
832.184	181.52
832.479	177.85
832.773	202.49
833.068	180.09
833.362	207.18
833.656	212.44
833.951	180.08
834.245	164.18
834.539	200.81
834.833	248.64
835.127	225.02
835.421	203.58
835.715	177
836.009	174.71
836.303	151.4
836.597	142.36
836.891	131.66
837.185	143.78
837.478	135.76
837.772	127.63
838.066	133.22
838.359	151.02
838.653	149.21
838.946	147.29
839.24	199.18
839.533	180.81
839.826	252.35
840.119	256.94
840.413	265.08
840.706	254.36
840.999	179.21
841.292	232.22
841.585	206.22
841.878	153.58
842.171	132.12
842.464	208.55
842.757	226.06
843.049	228.09
843.342	221.43
843.635	245.5
843.927	287.57
844.22	328.83
844.513	463.9
844.805	810.9
845.098	1241.65
845.39	1380.94
845.682	1341.72
845.975	2124.15
846.267	742.12
846.559	509.52
846.851	429.28
847.143	324.99
847.435	393.72
847.727	410.3
848.019	589.68
848.311	1294.56
848.603	2367.81
848.895	-1559.94
849.186	-439.54
849.478	-23291.3
849.77	1535.87
850.061	2079.4
850.353	-3896.64
850.645	-637.9
850.936	-621.65
851.227	-74471.43
851.519	-1501.29
851.81	1007.16
852.101	774.29
852.393	2291.71
852.684	-3367.55
852.975	-1068.35
853.266	-452.19
853.557	-372.73
853.848	-202.68
854.139	-125.01
854.43	-154.24
854.72	-256.57
855.011	-377.08
855.302	-449.69
855.593	-574.56
855.883	-745.74
856.174	-578.73
856.464	-2000.55
856.755	2177.84
857.045	1213
857.336	1249.03
857.626	-4502.3
857.916	3038.84
858.206	-14247.83
858.497	-378.31
858.787	-542.16
859.077	-706.15
859.367	-281.74
859.657	-446.51
859.947	-1818.56
860.237	1994.89
860.527	432.63
860.816	456.81
861.106	250.8
861.396	301.14
861.685	469.94
861.975	798.01
862.265	973.35
862.554	553.69
862.844	-2053.01
863.133	-1458.94
863.422	-1689.47
863.712	-655.43
864.001	-265.14
864.29	-252.61
864.579	-266.69
864.868	-417.28
865.157	-419
865.446	-611.33
865.735	-822
866.024	-672.28
866.313	-395.93
866.602	-640
866.891	-549.6
867.179	-327.81
867.468	-305.29
