Data from T2_Reflection__118__20-14-18-119.txt Node

Date: Fri Jun 04 20:14:18 CEST 2021
User: mabdelazizm
Spectrometer: FLMS18565
Trigger mode: 0
Integration Time (sec): 2.000000E0
Scans to average: 1
Electric dark correction enabled: true
Nonlinearity correction enabled: false
Boxcar width: 12
XAxis mode: Wavelengths
Number of Pixels in Spectrum: 2048
>>>>>Begin Spectral Data<<<<<
179.071	-81.04
179.452	-41.61
179.833	-120.05
180.214	-151.92
180.595	-184.86
180.977	-206.84
181.358	-205.24
181.739	-156.42
182.12	-110.08
182.501	-108.16
182.882	-137.22
183.262	-577.14
183.643	-85.52
184.024	-35.29
184.405	-9.72
184.786	3
185.166	-5.07
185.547	25.35
185.927	30.43
186.308	22.02
186.689	36.74
187.069	36.22
187.449	21.61
187.83	20.95
188.21	14.69
188.59	19.13
188.971	21.57
189.351	18.97
189.731	21.07
190.111	22.91
190.491	16.18
190.871	12.78
191.251	14.02
191.631	14.61
192.011	13.35
192.391	12.98
192.771	14.28
193.151	12.8
193.531	10.71
193.91	10.85
194.29	11.99
194.67	12.8
195.049	7.23
195.429	4.59
195.808	3.35
196.188	-1.28
196.567	-2.58
196.946	3.42
197.326	1.6
197.705	4.68
198.084	2.4
198.464	0.5
198.843	2.44
199.222	1.56
199.601	1.81
199.98	0.95
200.359	4.34
200.738	3.52
201.117	1.11
201.496	-2.35
201.875	-0.73
202.254	-1.61
202.632	-2.35
203.011	1.55
203.39	0.74
203.768	0.08
204.147	1.03
204.525	0.51
204.904	-1.53
205.282	1.28
205.661	-0.62
206.039	1.06
206.418	-2.19
206.796	-0.56
207.174	-2.13
207.552	-1.35
207.931	-2.92
208.309	-4.38
208.687	-3.69
209.065	-0.03
209.443	-0.52
209.821	-2.2
210.199	-3.39
210.577	-2.48
210.954	2.31
211.332	-0.62
211.71	-2.03
212.088	-1.32
212.465	-2.88
212.843	-1.71
213.221	-0.97
213.598	0.17
213.976	-0.88
214.353	-0.07
214.731	-1.66
215.108	0.6
215.485	-0.78
215.863	-0.23
216.24	-0.75
216.617	0.49
216.994	-0.37
217.371	0.28
217.749	0.81
218.126	1.13
218.503	-1.79
218.88	-1.17
219.256	-2.06
219.633	-0.49
220.01	0.01
220.387	0.47
220.764	1.29
221.14	3.23
221.517	3.29
221.894	2.82
222.27	2.89
222.647	2.3
223.023	0.92
223.4	1.33
223.776	1.62
224.153	1.02
224.529	0.81
224.905	1.61
225.282	1.81
225.658	1.55
226.034	1.27
226.41	1.5
226.786	0.99
227.162	0.82
227.538	0.62
227.914	0.83
228.29	0.75
228.666	1.35
229.042	1.35
229.418	1.19
229.793	0.65
230.169	0.63
230.545	0.25
230.92	0
231.296	-0.04
231.672	-0.06
232.047	-0.01
232.422	0.12
232.798	0.14
233.173	0.22
233.549	0.28
233.924	0.22
234.299	0.23
234.674	0.19
235.05	0.12
235.425	0.01
235.8	-0
236.175	0.11
236.55	0.16
236.925	0.13
237.3	0.25
237.675	0.3
238.049	0.12
238.424	0.03
238.799	0.16
239.174	0.23
239.548	0.24
239.923	0.33
240.297	0.32
240.672	0.32
241.046	0.35
241.421	0.36
241.795	0.38
242.17	0.32
242.544	0.29
242.918	0.28
243.293	0.31
243.667	0.22
244.041	0.31
244.415	0.34
244.789	0.41
245.163	0.41
245.537	0.38
245.911	0.46
246.285	0.42
246.659	0.39
247.033	0.44
247.406	0.46
247.78	0.44
248.154	0.37
248.528	0.44
248.901	0.45
249.275	0.37
249.648	0.46
250.022	0.43
250.395	0.36
250.769	0.38
251.142	0.45
251.515	0.48
251.888	0.47
252.262	0.52
252.635	0.57
253.008	0.59
253.381	0.54
253.754	0.56
254.127	0.57
254.5	0.58
254.873	0.59
255.246	0.53
255.619	0.54
255.992	0.52
256.364	0.48
256.737	0.49
257.11	0.49
257.483	0.47
257.855	0.45
258.228	0.47
258.6	0.49
258.973	0.46
259.345	0.54
259.718	0.55
260.09	0.56
260.462	0.44
260.834	0.46
261.207	0.5
261.579	0.49
261.951	0.5
262.323	0.47
262.695	0.48
263.067	0.52
263.439	0.56
263.811	0.59
264.183	0.6
264.555	0.64
264.927	0.7
265.298	0.69
265.67	0.66
266.042	0.66
266.413	0.67
266.785	0.72
267.156	0.71
267.528	0.69
267.899	0.68
268.271	0.68
268.642	0.61
269.013	0.64
269.385	0.62
269.756	0.66
270.127	0.6
270.498	0.58
270.87	0.55
271.241	0.5
271.612	0.52
271.983	0.52
272.354	0.48
272.724	0.43
273.095	0.42
273.466	0.39
273.837	0.37
274.208	0.34
274.578	0.35
274.949	0.4
275.32	0.38
275.69	0.38
276.061	0.32
276.431	0.3
276.802	0.29
277.172	0.38
277.542	0.34
277.913	0.38
278.283	0.37
278.653	0.35
279.023	0.37
279.394	0.46
279.764	0.48
280.134	0.5
280.504	0.5
280.874	0.51
281.244	0.45
281.614	0.45
281.983	0.44
282.353	0.52
282.723	0.57
283.093	0.57
283.462	0.57
283.832	0.56
284.202	0.55
284.571	0.54
284.941	0.5
285.31	0.59
285.68	0.59
286.049	0.57
286.418	0.48
286.788	0.54
287.157	0.55
287.526	0.52
287.895	0.53
288.264	0.55
288.633	0.51
289.002	0.48
289.371	0.51
289.74	0.49
290.109	0.45
290.478	0.44
290.847	0.48
291.216	0.45
291.585	0.31
291.953	0.27
292.322	0.3
292.691	0.32
293.059	0.28
293.428	0.26
293.796	0.27
294.165	0.28
294.533	0.22
294.901	0.2
295.27	0.27
295.638	0.28
296.006	0.21
296.374	0.18
296.743	0.18
297.111	0.2
297.479	0.14
297.847	0.13
298.215	0.1
298.583	0.04
298.95	0.05
299.318	0.08
299.686	0.07
300.054	-0
300.422	0.02
300.789	0.05
301.157	0.03
301.525	-0.01
301.892	-0.06
302.26	-0.03
302.627	0.04
302.994	0.03
303.362	0.07
303.729	0.06
304.097	0.03
304.464	-0.06
304.831	-0.03
305.198	-0.03
305.565	-0.03
305.932	-0.04
306.299	-0.11
306.666	-0.12
307.033	-0.14
307.4	-0.09
307.767	-0.14
308.134	-0.18
308.501	-0.17
308.867	-0.15
309.234	-0.1
309.601	-0.05
309.967	-0.06
310.334	-0.01
310.701	-0
311.067	-0.02
311.433	0.04
311.8	-0.05
312.166	-0.04
312.533	-0.08
312.899	-0.09
313.265	-0.03
313.631	0.03
313.997	0.03
314.363	0.01
314.729	0.01
315.096	0.03
315.461	0.05
315.827	0.1
316.193	0.11
316.559	0.11
316.925	0.14
317.291	0.16
317.656	0.16
318.022	0.17
318.388	0.19
318.753	0.09
319.119	0.13
319.484	0.15
319.85	0.11
320.215	0.08
320.581	0.03
320.946	0.04
321.311	0.05
321.676	0.05
322.042	0.09
322.407	0.02
322.772	-0
323.137	-0.04
323.502	0.02
323.867	0.04
324.232	0.04
324.597	0.01
324.962	-0.02
325.327	-0.01
325.691	-0.04
326.056	-0.03
326.421	-0.02
326.785	-0.03
327.15	-0.03
327.514	-0.1
327.879	-0.03
328.243	-0.08
328.608	-0.12
328.972	-0.04
329.337	-0.04
329.701	-0.01
330.065	0.02
330.429	0.02
330.794	0.06
331.158	0.06
331.522	0.06
331.886	0.01
332.25	-0
332.614	-0.04
332.978	-0.08
333.342	-0.09
333.705	-0.05
334.069	-0.07
334.433	-0.06
334.797	-0
335.16	-0.02
335.524	-0
335.887	0.01
336.251	0.03
336.614	0.05
336.978	0.02
337.341	0.01
337.705	-0.02
338.068	-0.03
338.431	-0.02
338.794	-0.07
339.158	-0.1
339.521	-0.11
339.884	-0.2
340.247	-0.24
340.61	-0.19
340.973	-0.16
341.336	-0.13
341.699	-0.19
342.062	-0.17
342.424	-0.15
342.787	-0.22
343.15	-0.26
343.512	-0.28
343.875	-0.3
344.238	-0.25
344.6	-0.3
344.963	-0.32
345.325	-0.39
345.688	-0.43
346.05	-0.45
346.412	-0.4
346.775	-0.4
347.137	-0.48
347.499	-0.47
347.861	-0.48
348.223	-0.48
348.585	-0.51
348.947	-0.47
349.309	-0.51
349.671	-0.51
350.033	-0.52
350.395	-0.52
350.757	-0.49
351.118	-0.56
351.48	-0.55
351.842	-0.49
352.203	-0.45
352.565	-0.53
352.927	-0.53
353.288	-0.51
353.65	-0.51
354.011	-0.52
354.372	-0.44
354.734	-0.44
355.095	-0.46
355.456	-0.45
355.817	-0.49
356.179	-0.47
356.54	-0.45
356.901	-0.47
357.262	-0.45
357.623	-0.43
357.984	-0.33
358.345	-0.28
358.705	-0.26
359.066	-0.26
359.427	-0.33
359.788	-0.32
360.148	-0.25
360.509	-0.25
360.87	-0.24
361.23	-0.25
361.591	-0.15
361.951	-0.19
362.312	-0.23
362.672	-0.2
363.032	-0.19
363.393	-0.21
363.753	-0.23
364.113	-0.23
364.473	-0.25
364.833	-0.21
365.193	-0.21
365.553	-0.21
365.913	-0.21
366.273	-0.25
366.633	-0.25
366.993	-0.37
367.353	-0.44
367.713	-0.49
368.072	-0.5
368.432	-0.44
368.792	-0.47
369.151	-0.45
369.511	-0.42
369.87	-0.46
370.23	-0.44
370.589	-0.47
370.949	-0.5
371.308	-0.51
371.667	-0.56
372.027	-0.57
372.386	-0.57
372.745	-0.56
373.104	-0.55
373.463	-0.57
373.822	-0.63
374.181	-0.6
374.54	-0.58
374.899	-0.51
375.258	-0.54
375.617	-0.5
375.975	-0.45
376.334	-0.37
376.693	-0.32
377.052	-0.26
377.41	-0.32
377.769	-0.26
378.127	-0.28
378.486	-0.37
378.844	-0.42
379.202	-0.5
379.561	-0.53
379.919	-0.49
380.277	-0.45
380.636	-0.41
380.994	-0.44
381.352	-0.46
381.71	-0.49
382.068	-0.43
382.426	-0.44
382.784	-0.41
383.142	-0.47
383.5	-0.46
383.857	-0.48
384.215	-0.45
384.573	-0.53
384.931	-0.5
385.288	-0.58
385.646	-0.65
386.003	-0.71
386.361	-0.62
386.718	-0.64
387.076	-0.66
387.433	-0.65
387.791	-0.6
388.148	-0.56
388.505	-0.57
388.862	-0.56
389.22	-0.58
389.577	-0.56
389.934	-0.55
390.291	-0.59
390.648	-0.53
391.005	-0.64
391.362	-0.68
391.718	-0.66
392.075	-0.65
392.432	-0.67
392.789	-0.7
393.145	-0.68
393.502	-0.66
393.859	-0.64
394.215	-0.55
394.572	-0.52
394.928	-0.52
395.285	-0.55
395.641	-0.52
395.997	-0.54
396.354	-0.51
396.71	-0.49
397.066	-0.47
397.422	-0.35
397.778	-0.39
398.134	-0.35
398.491	-0.43
398.846	-0.45
399.202	-0.44
399.558	-0.52
399.914	-0.41
400.27	-0.41
400.626	-0.49
400.981	-0.49
401.337	-0.5
401.693	-0.45
402.048	-0.49
402.404	-0.48
402.759	-0.52
403.115	-0.57
403.47	-0.54
403.826	-0.5
404.181	-0.56
404.536	-0.65
404.892	-0.68
405.247	-0.68
405.602	-0.69
405.957	-0.71
406.312	-0.81
406.667	-0.78
407.022	-0.8
407.377	-0.69
407.732	-0.68
408.087	-0.69
408.442	-0.65
408.796	-0.69
409.151	-0.63
409.506	-0.52
409.86	-0.5
410.215	-0.54
410.57	-0.66
410.924	-0.61
411.279	-0.62
411.633	-0.6
411.987	-0.59
412.342	-0.59
412.696	-0.61
413.05	-0.57
413.404	-0.5
413.758	-0.38
414.113	-0.32
414.467	-0.3
414.821	-0.32
415.175	-0.26
415.529	-0.3
415.882	-0.35
416.236	-0.39
416.59	-0.41
416.944	-0.34
417.298	-0.23
417.651	-0.19
418.005	-0.16
418.358	-0.17
418.712	-0.11
419.065	-0.12
419.419	-0.09
419.772	-0.14
420.126	-0.05
420.479	0.01
420.832	-0.1
421.185	-0.06
421.539	-0.09
421.892	-0.07
422.245	-0.07
422.598	-0.13
422.951	-0.13
423.304	-0.17
423.657	-0.11
424.01	-0.15
424.363	-0.17
424.715	-0.17
425.068	-0.17
425.421	-0.08
425.773	-0.12
426.126	-0.07
426.479	-0.06
426.831	-0.03
427.184	-0.05
427.536	-0.03
427.889	0.01
428.241	0.05
428.593	0.03
428.945	0
429.298	-0.04
429.65	0.1
430.002	0.08
430.354	0.2
430.706	0.26
431.058	0.3
431.41	0.3
431.762	0.25
432.114	0.3
432.466	0.27
432.817	0.32
433.169	0.45
433.521	0.46
433.872	0.56
434.224	0.52
434.576	0.55
434.927	0.37
435.279	0.32
435.63	0.29
435.981	0.33
436.333	0.31
436.684	0.43
437.035	0.4
437.387	0.43
437.738	0.39
438.089	0.37
438.44	0.35
438.791	0.29
439.142	0.23
439.493	0.21
439.844	0.2
440.195	0.23
440.545	0.28
440.896	0.36
441.247	0.37
441.598	0.32
441.948	0.25
442.299	0.26
442.649	0.26
443	0.25
443.35	0.21
443.701	0.33
444.051	0.31
444.401	0.29
444.752	0.22
445.102	0.14
445.452	0.02
445.802	0.05
446.152	0.11
446.502	0.1
446.852	0.04
447.202	0.07
447.552	0.08
447.902	0.09
448.252	-0.02
448.602	0.56
448.952	0.56
449.301	0.51
449.651	0.44
450.001	0.32
450.35	0.33
450.7	0.38
451.049	0.42
451.399	0.42
451.748	0.47
452.097	0.65
452.447	0.56
452.796	0.67
453.145	0.73
453.494	0.7
453.843	0.83
454.193	0.9
454.542	0.89
454.891	0.92
455.239	0.88
455.588	0.91
455.937	0.88
456.286	0.85
456.635	0.82
456.984	0.93
457.332	0.29
457.681	0.26
458.03	0.29
458.378	0.27
458.727	0.42
459.075	0.46
459.423	0.53
459.772	0.52
460.12	0.37
460.468	0.43
460.817	0.38
461.165	0.44
461.513	0.42
461.861	0.45
462.209	0.63
462.557	0.68
462.905	0.64
463.253	0.67
463.601	0.75
463.949	0.87
464.297	0.91
464.644	1.04
464.992	1.1
465.34	1.05
465.687	1.18
466.035	1.11
466.383	1.22
466.73	1.16
467.078	1.17
467.425	1.13
467.772	1.21
468.12	1.15
468.467	1.1
468.814	1.21
469.161	1.15
469.508	1.19
469.856	1.17
470.203	1.13
470.55	1.06
470.897	1.07
471.243	0.97
471.59	1.05
471.937	1.03
472.284	0.92
472.631	0.8
472.977	0.85
473.324	0.85
473.671	0.81
474.017	0.82
474.364	0.67
474.71	0.74
475.057	0.69
475.403	0.73
475.749	0.83
476.096	0.86
476.442	0.85
476.788	0.87
477.134	0.93
477.48	0.94
477.826	0.96
478.172	0.87
478.518	0.92
478.864	0.95
479.21	1.03
479.556	0.95
479.902	0.96
480.248	0.95
480.593	0.93
480.939	0.93
481.285	1
481.63	1.01
481.976	0.99
482.321	1.04
482.667	1.11
483.012	1.15
483.357	1.21
483.703	1.23
484.048	1.38
484.393	1.44
484.738	1.51
485.084	1.52
485.429	1.58
485.774	1.62
486.119	1.68
486.464	1.76
486.808	1.85
487.153	1.92
487.498	2.03
487.843	2.08
488.188	2.27
488.532	2.46
488.877	2.66
489.222	2.9
489.566	3.1
489.911	3.38
490.255	3.57
490.6	3.75
490.944	3.98
491.288	4.24
491.633	4.51
491.977	4.76
492.321	5.1
492.665	5.33
493.009	5.64
493.353	6.01
493.697	6.37
494.041	6.7
494.385	7.12
494.729	7.52
495.073	7.96
495.417	8.43
495.76	8.9
496.104	9.43
496.448	9.97
496.791	10.53
497.135	11.04
497.479	11.59
497.822	12.18
498.165	12.8
498.509	13.32
498.852	14.01
499.196	14.71
499.539	15.38
499.882	16.06
500.225	16.72
500.568	17.38
500.911	18.03
501.254	18.68
501.597	19.34
501.94	19.96
502.283	20.62
502.626	21.39
502.969	22.01
503.312	22.68
503.654	23.37
503.997	24.07
504.34	24.77
504.682	25.43
505.025	26.05
505.367	26.67
505.71	27.26
506.052	27.94
506.395	28.56
506.737	29.19
507.079	29.95
507.421	30.63
507.764	31.27
508.106	31.88
508.448	32.5
508.79	33.12
509.132	33.67
509.474	34.32
509.816	34.83
510.158	35.42
510.499	36.02
510.841	36.65
511.183	37.17
511.525	37.74
511.866	38.32
512.208	38.79
512.549	39.24
512.891	39.82
513.232	40.38
513.574	40.95
513.915	41.36
514.256	41.91
514.598	42.36
514.939	42.8
515.28	43.24
515.621	43.59
515.962	43.99
516.303	44.49
516.644	44.9
516.985	45.3
517.326	45.74
517.667	46.25
518.008	46.53
518.349	47.15
518.69	47.46
519.03	47.9
519.371	48.29
519.712	48.54
520.052	48.84
520.393	49.15
520.733	49.48
521.074	49.86
521.414	50.22
521.754	50.62
522.095	50.96
522.435	51.37
522.775	51.74
523.115	52
523.455	52.33
523.795	52.63
524.135	52.95
524.475	53.08
524.815	53.23
525.155	53.59
525.495	53.75
525.835	53.99
526.175	54.16
526.514	54.34
526.854	54.35
527.194	54.56
527.533	54.67
527.873	54.72
528.212	55.05
528.552	55.28
528.891	55.45
529.23	55.72
529.57	55.88
529.909	56.15
530.248	55.9
530.587	56.15
530.927	56.2
531.266	56.27
531.605	56.43
531.944	56.49
532.283	56.66
532.621	56.67
532.96	56.96
533.299	57.09
533.638	57.1
533.977	57.32
534.315	57.43
534.654	57.59
534.992	57.91
535.331	58.08
535.67	58.21
536.008	58.34
536.346	58.45
536.685	58.31
537.023	58.41
537.361	58.7
537.7	58.78
538.038	58.81
538.376	58.73
538.714	59.1
539.052	59.1
539.39	59.22
539.728	59.27
540.066	59.22
540.404	59.28
540.741	59.36
541.079	59.4
541.417	59.49
541.755	59.51
542.092	59.55
542.43	59.48
542.767	59.5
543.105	59.34
543.442	59.27
543.78	59.26
544.117	59.38
544.454	59.51
544.792	59.7
545.129	59.99
545.466	59.94
545.803	59.78
546.14	59.75
546.477	59.83
546.814	59.81
547.151	59.63
547.488	59.63
547.825	59.85
548.162	59.89
548.499	60
548.835	60.19
549.172	60.39
549.509	60.46
549.845	60.35
550.182	60.38
550.518	60.52
550.855	60.54
551.191	60.64
551.528	60.78
551.864	60.82
552.2	60.88
552.537	60.84
552.873	60.92
553.209	60.89
553.545	60.84
553.881	60.89
554.217	61.05
554.553	61.26
554.889	61.46
555.225	61.53
555.561	61.69
555.896	61.71
556.232	61.6
556.568	61.64
556.903	61.69
557.239	61.56
557.575	61.44
557.91	61.56
558.245	61.74
558.581	61.82
558.916	61.85
559.252	62.07
559.587	62.07
559.922	62.04
560.257	62.11
560.592	62.16
560.928	62.18
561.263	62.19
561.598	62.27
561.933	62.33
562.267	62.45
562.602	62.45
562.937	62.56
563.272	62.45
563.607	62.55
563.941	62.87
564.276	62.96
564.611	63.05
564.945	63.27
565.28	63.5
565.614	63.48
565.949	63.53
566.283	63.59
566.617	63.71
566.951	63.95
567.286	63.98
567.62	63.9
567.954	63.98
568.288	64.12
568.622	64.19
568.956	64.24
569.29	64.34
569.624	64.26
569.958	64.42
570.292	64.38
570.626	64.52
570.959	64.59
571.293	64.51
571.627	64.73
571.96	64.74
572.294	64.62
572.627	64.59
572.961	64.62
573.294	64.55
573.627	64.5
573.961	64.65
574.294	64.65
574.627	64.74
574.961	64.76
575.294	64.83
575.627	64.95
575.96	65.01
576.293	64.84
576.626	64.77
576.959	64.83
577.292	64.83
577.624	64.77
577.957	64.84
578.29	64.85
578.623	64.94
578.955	64.88
579.288	64.82
579.62	64.79
579.953	64.57
580.285	64.61
580.618	64.72
580.95	64.82
581.282	64.89
581.615	65
581.947	64.92
582.279	65.01
582.611	65.01
582.943	64.96
583.275	65
583.607	64.97
583.939	64.89
584.271	64.84
584.603	65.09
584.935	65.29
585.267	65.21
585.598	65.36
585.93	65.42
586.262	65.42
586.593	65.32
586.925	65.29
587.256	65.27
587.588	65.27
587.919	65.42
588.25	65.48
588.582	65.44
588.913	65.47
589.244	65.48
589.575	65.41
589.907	65.35
590.238	65.46
590.569	65.37
590.9	65.54
591.231	65.51
591.562	65.4
591.892	65.29
592.223	65.3
592.554	65.42
592.885	65.34
593.215	65.27
593.546	65.17
593.877	64.94
594.207	64.87
594.538	64.8
594.868	64.74
595.198	64.68
595.529	64.62
595.859	64.62
596.189	64.67
596.52	64.81
596.85	64.96
597.18	64.89
597.51	64.89
597.84	64.94
598.17	64.99
598.5	65.04
598.83	65.1
599.16	65.07
599.489	65.22
599.819	65.24
600.149	65.17
600.479	65.13
600.808	64.97
601.138	64.96
601.467	64.93
601.797	65.02
602.126	65.07
602.456	65.3
602.785	65.41
603.114	65.45
603.443	65.6
603.773	65.76
604.102	65.89
604.431	65.79
604.76	65.66
605.089	65.4
605.418	65.36
605.747	65.4
606.076	65.31
606.405	65.18
606.733	65.16
607.062	65.11
607.391	65.01
607.72	64.78
608.048	64.77
608.377	64.75
608.705	64.82
609.034	64.95
609.362	64.97
609.69	65.12
610.019	65.09
610.347	65.34
610.675	65.29
611.004	65.29
611.332	65.34
611.66	65.32
611.988	65.21
612.316	65.22
612.644	65.12
612.972	65.24
613.3	65.29
613.627	65.4
613.955	65.24
614.283	65.1
614.611	65.32
614.938	65.45
615.266	65.51
615.593	65.67
615.921	65.68
616.248	65.73
616.576	65.74
616.903	65.61
617.23	65.53
617.558	65.65
617.885	65.41
618.212	65.41
618.539	65.28
618.866	64.99
619.193	64.99
619.52	64.88
619.847	64.93
620.174	65.18
620.501	65.09
620.828	65.14
621.155	65.08
621.481	65.08
621.808	64.94
622.135	65
622.461	65.32
622.788	65.09
623.114	64.83
623.441	64.14
623.767	63.78
624.093	63.92
624.42	63.87
624.746	64.3
625.072	64.36
625.398	64.5
625.725	64.71
626.051	64.87
626.377	65.07
626.703	64.97
627.029	65.18
627.354	64.91
627.68	65
628.006	64.87
628.332	64.2
628.658	63.98
628.983	63.9
629.309	64.04
629.634	63.92
629.96	63.74
630.285	63.52
630.611	63.31
630.936	63.24
631.262	63.66
631.587	64.34
631.912	64.8
632.237	64.75
632.562	64.9
632.887	64.56
633.213	64.41
633.538	64.49
633.863	64.11
634.187	63.95
634.512	63.88
634.837	63.68
635.162	63.57
635.487	63.31
635.811	63.56
636.136	64.07
636.461	64.26
636.785	64.43
637.11	64.77
637.434	64.92
637.758	65.24
638.083	65.09
638.407	65.31
638.731	65.21
639.056	65.45
639.38	65.11
639.704	65.64
640.028	65.58
640.352	66.01
640.676	65.96
641	65.62
641.324	66.24
641.648	65.84
641.972	65.71
642.295	65.31
642.619	64.92
642.943	64.99
643.266	64.93
643.59	65.35
643.913	64.75
644.237	64.25
644.56	64.34
644.884	64.34
645.207	63.92
645.53	63.62
645.854	64.17
646.177	64.77
646.5	65.12
646.823	65.51
647.146	65.33
647.469	65.07
647.792	64.51
648.115	64.38
648.438	64.52
648.761	66.4
649.084	67.35
649.406	66.9
649.729	65.93
650.052	65.55
650.374	65.4
650.697	65.4
651.019	65.5
651.342	65.44
651.664	65.63
651.987	65.72
652.309	65.72
652.631	65.83
652.953	65.91
653.276	65.81
653.598	65.78
653.92	65.68
654.242	65.7
654.564	65.61
654.886	65.45
655.208	65.4
655.53	65.38
655.851	65.31
656.173	65.53
656.495	65.33
656.816	64.46
657.138	63.54
657.46	62.64
657.781	63.5
658.103	63.95
658.424	64.74
658.746	64.91
659.067	64.63
659.388	65.47
659.709	64.79
660.031	64.22
660.352	64.11
660.673	63.02
660.994	62.59
661.315	63.29
661.636	63.41
661.957	62.2
662.278	62.6
662.599	62.25
662.919	61.98
663.24	61.85
663.561	61.55
663.881	61.76
664.202	60.04
664.523	59.38
664.843	59.18
665.164	59.06
665.484	59.33
665.804	58.7
666.125	58.19
666.445	58.82
666.765	59.07
667.085	58.97
667.405	58.45
667.726	58.64
668.046	59.75
668.366	59.36
668.686	60.12
669.005	59.66
669.325	59.19
669.645	58.6
669.965	58.75
670.285	57.96
670.604	58.02
670.924	58.25
671.243	58.91
671.563	59.38
671.882	59.66
672.202	59.87
672.521	60.86
672.841	60.79
673.16	60.59
673.479	60.03
673.798	60.09
674.117	61.16
674.437	59.9
674.756	59.95
675.075	60.19
675.394	60.45
675.713	60.55
676.031	60.03
676.35	60.02
676.669	59.69
676.988	60.8
677.306	61.03
677.625	61.65
677.944	61.63
678.262	62.17
678.581	62.48
678.899	62.48
679.218	62.35
679.536	62.3
679.854	62.84
680.172	63.16
680.491	62.64
680.809	62.57
681.127	63.06
681.445	63.75
681.763	63.93
682.081	62.72
682.399	63.02
682.717	63.26
683.035	63.27
683.352	62.71
683.67	62.97
683.988	63.23
684.306	63.97
684.623	64.29
684.941	63.88
685.258	64.08
685.576	64.27
685.893	65.17
686.211	64.81
686.528	64.71
686.845	65.76
687.162	65.28
687.48	65.56
687.797	65.6
688.114	65.11
688.431	65.02
688.748	65.2
689.065	65.12
689.382	64.89
689.699	65.36
690.015	66.1
690.332	66.07
690.649	65.97
690.966	65.64
691.282	65.91
691.599	65.32
691.915	65.17
692.232	64.83
692.548	64.94
692.865	64.95
693.181	64.73
693.497	64.3
693.813	63.65
694.13	64.38
694.446	63.75
694.762	62.29
695.078	62.59
695.394	63.51
695.71	62.31
696.026	63.24
696.342	63.21
696.658	64.06
696.973	64.15
697.289	64.28
697.605	62.8
697.92	62.33
698.236	62.59
698.551	62
698.867	62.5
699.182	63.53
699.498	64.13
699.813	64.48
700.128	64.92
700.444	65.25
700.759	65.97
701.074	65.9
701.389	66.83
701.704	66.91
702.019	66.31
702.334	67.44
702.649	68.56
702.964	68.45
703.279	67.42
703.594	67.55
703.908	66.55
704.223	66.32
704.538	64.96
704.852	64.78
705.167	63.83
705.481	64.69
705.796	65.25
706.11	65.08
706.425	64.83
706.739	64.33
707.053	63.78
707.368	63.48
707.682	63.09
707.996	62.72
708.31	62.69
708.624	62.02
708.938	62.38
709.252	61.59
709.566	61.43
709.88	60.4
710.193	59.19
710.507	58.52
710.821	59.09
711.135	59.25
711.448	59.14
711.762	60.7
712.075	62.23
712.389	63.42
712.702	62.99
713.015	63.83
713.329	64.26
713.642	64.35
713.955	64.75
714.269	66.02
714.582	66.62
714.895	65.94
715.208	66.47
715.521	67.02
715.834	67.14
716.147	66.99
716.459	66.9
716.772	67.32
717.085	67.06
717.398	66.64
717.71	66.83
718.023	66.96
718.336	67.6
718.648	67.43
718.961	66.21
719.273	66.68
719.585	66.17
719.898	65.85
720.21	64.28
720.522	63.55
720.834	63.8
721.147	63.04
721.459	62.48
721.771	62.13
722.083	61.28
722.395	61.25
722.707	61.81
723.019	60.67
723.33	60.19
723.642	61.33
723.954	61.23
724.265	61.04
724.577	60.27
724.889	60.55
725.2	61.27
725.512	61.68
725.823	62.11
726.135	62.05
726.446	61.43
726.757	63.08
727.068	63.48
727.38	63.9
727.691	63.82
728.002	64.11
728.313	65.32
728.624	65.26
728.935	64.86
729.246	65.41
729.557	65.95
729.867	67.01
730.178	66.52
730.489	66.57
730.8	67.25
731.11	66.93
731.421	65.31
731.731	64.03
732.042	64.14
732.352	63.57
732.663	64.41
732.973	64.01
733.283	64.53
733.594	64.87
733.904	64.59
734.214	65.66
734.524	64.75
734.834	65.45
735.144	64.94
735.454	65.01
735.764	65.14
736.074	65.21
736.384	65.44
736.694	65.82
737.003	64.93
737.313	64.92
737.623	63.02
737.932	62.9
738.242	63.22
738.551	62.71
738.861	62.71
739.17	63.08
739.479	64.37
739.789	65.08
740.098	65.17
740.407	64.78
740.716	66.78
741.025	66.34
741.334	66.93
741.643	66.16
741.952	65.48
742.261	66.3
742.57	63.51
742.879	62.28
743.188	62.63
743.497	64.34
743.805	65.05
744.114	65.47
744.422	63.44
744.731	64.35
745.04	64.66
745.348	67.17
745.656	66.99
745.965	67.06
746.273	68.24
746.581	67.48
746.889	67.71
747.198	68.7
747.506	69.02
747.814	70.68
748.122	67.19
748.43	64.91
748.738	64.15
749.046	63.8
749.353	65.22
749.661	65.04
749.969	66.6
750.277	66
750.584	67.43
750.892	67.02
751.199	67.26
751.507	66.98
751.814	67.47
752.122	69.12
752.429	71.04
752.736	70.21
753.044	67.48
753.351	67.79
753.658	67.14
753.965	66.47
754.272	68.06
754.579	68.83
754.886	68.09
755.193	68.19
755.5	68.08
755.807	69.95
756.114	69.23
756.42	68.87
756.727	68.21
757.034	68.34
757.34	69.53
757.647	67.32
757.953	68.12
758.26	66.82
758.566	65.91
758.872	65.05
759.179	64.47
759.485	64.14
759.791	64.03
760.097	60.22
760.403	57.74
760.709	59.1
761.015	59.7
761.321	58.76
761.627	58.61
761.933	54.81
762.239	54.13
762.545	53
762.851	51.91
763.156	50.65
763.462	51.04
763.767	53.12
764.073	54.87
764.378	55.35
764.684	55.27
764.989	53.36
765.295	56.21
765.6	55.2
765.905	56.94
766.21	58.44
766.515	57.27
766.821	53.92
767.126	49.43
767.431	51.03
767.736	56.09
768.041	58.44
768.345	54.72
768.65	50.56
768.955	47.58
769.26	44.9
769.564	49.65
769.869	49.23
770.174	51.91
770.478	55.04
770.783	49.6
771.087	51.8
771.391	50.29
771.696	50.84
772	64.06
772.304	64.01
772.608	61.74
772.913	60.36
773.217	65.5
773.521	59.64
773.825	56.8
774.129	59.3
774.433	63.18
774.736	63.97
775.04	59.58
775.344	50.32
775.648	49.79
775.951	50.56
776.255	60.69
776.559	63.19
776.862	67.91
777.166	78.18
777.469	73.78
777.772	75.26
778.076	74.26
778.379	78.49
778.682	74.08
778.985	67.69
779.289	65.13
779.592	57.24
779.895	57.9
780.198	58.9
780.501	55.76
780.804	54.59
781.106	57.72
781.409	51.55
781.712	50.82
782.015	51.3
782.317	48.49
782.62	52.39
782.923	65.75
783.225	65.67
783.527	73.1
783.83	70.41
784.132	75.62
784.435	83.13
784.737	69.35
785.039	66.56
785.341	64.07
785.643	62.4
785.945	59.31
786.248	58.42
786.55	78.95
786.851	68.66
787.153	55.43
787.455	41.53
787.757	46.28
788.059	39.88
788.36	38.87
788.662	35.28
788.964	47.01
789.265	42.12
789.567	49.47
789.868	54.57
790.17	47.48
790.471	40.92
790.772	32.25
791.074	28.72
791.375	20.16
791.676	22.39
791.977	18.49
792.278	20.28
792.579	27.9
792.88	9.46
793.181	22.52
793.482	21.1
793.783	24.11
794.083	17.63
794.384	38.13
794.685	37.9
794.986	50.52
795.286	29.11
795.587	38.23
795.887	39.55
796.188	42.11
796.488	33.57
796.788	32.91
797.089	23.35
797.389	22.21
797.689	22.37
797.989	3.53
798.289	12.27
798.589	23.63
798.889	19.4
799.189	26.71
799.489	37.33
799.789	29.37
800.089	22.99
800.389	29.44
800.688	20.51
800.988	26.07
801.288	17.68
801.587	10.77
801.887	-15.98
802.186	-21.9
802.486	-5.91
802.785	-4.8
803.085	-9.4
803.384	-16.95
803.683	-25.98
803.982	-42.07
804.281	-53.75
804.58	-6.83
804.879	-73.49
805.178	-20.38
805.477	16.9
805.776	53.27
806.075	7.49
806.374	40.13
806.673	34.49
806.971	-19.65
807.27	-515.56
807.569	-542.53
807.867	-47.06
808.166	208.3
808.464	164.31
808.763	56.37
809.061	67.29
809.359	33.85
809.658	7.82
809.956	19.19
810.254	-12.81
810.552	14.28
810.85	-29.05
811.148	-29.02
811.446	-51.12
811.744	-51.12
812.042	14.75
812.34	-15.35
812.638	-16.99
812.935	-49.78
813.233	-26.58
813.531	-61.22
813.828	-36.38
814.126	-55.09
814.423	-120.96
814.721	-245.35
815.018	-192.75
815.316	-111.1
815.613	-75.61
815.91	-29.59
816.207	-16.41
816.504	-27.74
816.802	-23.47
817.099	-19.8
817.396	-101.47
817.693	-119.19
817.99	-213.86
818.286	-20.77
818.583	65.05
818.88	71.29
819.177	84.95
819.473	-30.38
819.77	8.18
820.067	147.26
820.363	1084.93
820.66	-56.83
820.956	-263.26
821.252	2892.31
821.549	-554.74
821.845	337.19
822.141	-301.8
822.437	15.09
822.734	100.32
823.03	-307.69
823.326	-167.99
823.622	-289.22
823.918	-1557.89
824.213	-595.02
824.509	-541.41
824.805	-105.61
825.101	4
825.397	52.91
825.692	52.51
825.988	47.35
826.283	46.86
826.579	-14.26
826.874	69.9
827.17	923.08
827.465	-92.24
827.76	-11.91
828.056	58.81
828.351	517.27
828.646	153.39
828.941	237.84
829.236	183.59
829.531	150.78
829.826	155.86
830.121	167.67
830.416	181.64
830.711	181
831.006	193.66
831.3	189.22
831.595	179.64
831.89	163.25
832.184	128.6
832.479	111.68
832.773	103.68
833.068	104.81
833.362	85.79
833.656	73.34
833.951	68.4
834.245	89.02
834.539	113.46
834.833	143
835.127	138.97
835.421	133.06
835.715	119.11
836.009	140.31
836.303	126.63
836.597	129.32
836.891	129.37
837.185	147.31
837.478	133.23
837.772	136.46
838.066	143.6
838.359	146.75
838.653	136.33
838.946	141.76
839.24	172.66
839.533	205
839.826	320.29
840.119	336.97
840.413	314.97
840.706	361.2
840.999	269.83
841.292	322.77
841.585	234.66
841.878	180.66
842.171	189.58
842.464	287.02
842.757	236.91
843.049	276.47
843.342	235.63
843.635	236.42
843.927	283.4
844.22	295.71
844.513	384.85
844.805	751.97
845.098	1018.35
845.39	1074.82
845.682	1097.51
845.975	1941.13
846.267	682.98
846.559	485.98
846.851	392.06
847.143	255.52
847.435	307.62
847.727	331.02
848.019	515.24
848.311	1086.62
848.603	2132.19
848.895	-1387.16
849.186	-370.41
849.478	-20695.65
849.77	1354.41
850.061	2297
850.353	-3717.65
850.645	-591.65
850.936	-559.65
851.227	-62514.29
851.519	-1232.15
851.81	871.98
852.101	646.02
852.393	1714.29
852.684	-2145.7
852.975	-585.49
853.266	-254.73
853.557	-215.3
853.848	-138.44
854.139	-49.85
854.43	-91.8
854.72	-195.75
855.011	-280.84
855.302	-161.59
855.593	-235.8
855.883	-227.95
856.174	-266.67
856.464	-843.72
856.755	1111.35
857.045	630.24
857.336	516.34
857.626	-1737.93
857.916	1421.49
858.206	-8104.35
858.497	-139.78
858.787	-163.55
859.077	-209.23
859.367	-13.88
859.657	1.05
859.947	14.37
860.237	145.99
860.527	-30.08
860.816	-35.1
861.106	-16.29
861.396	-8.62
861.685	-112.27
861.975	-198.19
862.265	-252.32
862.554	26.85
862.844	135.52
863.133	51.71
863.422	119.84
863.712	-31.91
864.001	23.09
864.29	33.18
864.579	14.42
864.868	-5.58
865.157	14.45
865.446	65.02
865.735	66.54
866.024	23.76
866.313	74.24
866.602	62.86
866.891	-47.36
867.179	-44.17
867.468	-38.53
