Data from T2_Reflection__15__18-57-20-269.txt Node

Date: Fri Jun 04 18:57:20 CEST 2021
User: mabdelazizm
Spectrometer: FLMS18565
Trigger mode: 0
Integration Time (sec): 2.000000E0
Scans to average: 1
Electric dark correction enabled: true
Nonlinearity correction enabled: false
Boxcar width: 12
XAxis mode: Wavelengths
Number of Pixels in Spectrum: 2048
>>>>>Begin Spectral Data<<<<<
179.071	-38.18
179.452	-18.08
179.833	-102.16
180.214	-71.15
180.595	-38.45
180.977	-35.36
181.358	-45.9
181.739	-107.82
182.12	-65.98
182.501	-72.49
182.882	-75.96
183.262	-488.57
183.643	-98.64
184.024	-79.58
184.405	-32.18
184.786	-12.16
185.166	-35.38
185.547	-20.56
185.927	-8
186.308	-19.7
186.689	-4.73
187.069	-3.99
187.449	-15.21
187.83	-14.96
188.21	-15.16
188.59	-10.4
188.971	-9.83
189.351	-3.38
189.731	-3.64
190.111	-9.06
190.491	-8.31
190.871	-10.79
191.251	-7.58
191.631	-5.57
192.011	-7.77
192.391	-9.09
192.771	-5.73
193.151	-5.82
193.531	-2.69
193.91	-1.34
194.29	-1.71
194.67	0.05
195.049	-1.36
195.429	-4.2
195.808	-1.83
196.188	-5.78
196.567	-6.57
196.946	-5.03
197.326	-5.58
197.705	-4.6
198.084	-4.95
198.464	-3.61
198.843	-3.15
199.222	-4.85
199.601	-1.74
199.98	-2.03
200.359	0.68
200.738	0.38
201.117	-2.82
201.496	-3
201.875	-0.37
202.254	0.16
202.632	-0.31
203.011	-1.09
203.39	-2.43
203.768	-2.62
204.147	-0.65
204.525	-0.97
204.904	-2.44
205.282	-1.47
205.661	-2.91
206.039	-1.71
206.418	-0.96
206.796	1.97
207.174	1.98
207.552	2.21
207.931	-0.4
208.309	-1.12
208.687	1.24
209.065	1.39
209.443	1.67
209.821	-0.18
210.199	0.43
210.577	1.38
210.954	4.98
211.332	4.28
211.71	3.58
212.088	4.91
212.465	7.04
212.843	7.08
213.221	7.48
213.598	5.67
213.976	5.1
214.353	4.7
214.731	3.64
215.108	5.99
215.485	6.72
215.863	6.45
216.24	5.31
216.617	5.1
216.994	4.23
217.371	5
217.749	3.58
218.126	1.9
218.503	1.83
218.88	1.18
219.256	0.3
219.633	-0.22
220.01	-0.01
220.387	-0.44
220.764	-0.95
221.14	-0.06
221.517	-0.77
221.894	-1.51
222.27	-1.91
222.647	-1.95
223.023	-1.83
223.4	-1.81
223.776	-0.68
224.153	-0.81
224.529	-1
224.905	-1
225.282	-1.01
225.658	-1.23
226.034	-1.35
226.41	-1.05
226.786	-1.11
227.162	-0.54
227.538	-0.45
227.914	-0.59
228.29	-0.51
228.666	-0.06
229.042	-0.1
229.418	0.24
229.793	-0.02
230.169	0.13
230.545	-0.32
230.92	-0.23
231.296	-0.23
231.672	-0.19
232.047	-0.09
232.422	0.06
232.798	0.3
233.173	0.28
233.549	0.47
233.924	0.66
234.299	0.67
234.674	0.7
235.05	0.74
235.425	0.77
235.8	0.76
236.175	0.77
236.55	0.87
236.925	0.9
237.3	1.03
237.675	1.15
238.049	1.12
238.424	1.14
238.799	1.18
239.174	1.27
239.548	1.32
239.923	1.38
240.297	1.33
240.672	1.37
241.046	1.47
241.421	1.44
241.795	1.44
242.17	1.29
242.544	1.22
242.918	1.18
243.293	1.15
243.667	1.07
244.041	1.09
244.415	1.07
244.789	1.05
245.163	1.05
245.537	1.01
245.911	0.96
246.285	0.91
246.659	0.82
247.033	0.76
247.406	0.78
247.78	0.8
248.154	0.71
248.528	0.71
248.901	0.65
249.275	0.63
249.648	0.73
250.022	0.69
250.395	0.61
250.769	0.59
251.142	0.6
251.515	0.64
251.888	0.65
252.262	0.69
252.635	0.66
253.008	0.67
253.381	0.64
253.754	0.61
254.127	0.67
254.5	0.63
254.873	0.67
255.246	0.62
255.619	0.69
255.992	0.73
256.364	0.72
256.737	0.76
257.11	0.75
257.483	0.77
257.855	0.77
258.228	0.79
258.6	0.82
258.973	0.79
259.345	0.84
259.718	0.82
260.09	0.81
260.462	0.74
260.834	0.77
261.207	0.79
261.579	0.76
261.951	0.74
262.323	0.71
262.695	0.75
263.067	0.81
263.439	0.79
263.811	0.85
264.183	0.82
264.555	0.87
264.927	0.87
265.298	0.84
265.67	0.82
266.042	0.78
266.413	0.77
266.785	0.76
267.156	0.74
267.528	0.73
267.899	0.72
268.271	0.74
268.642	0.64
269.013	0.7
269.385	0.71
269.756	0.74
270.127	0.67
270.498	0.67
270.87	0.64
271.241	0.65
271.612	0.64
271.983	0.65
272.354	0.56
272.724	0.53
273.095	0.51
273.466	0.54
273.837	0.5
274.208	0.48
274.578	0.5
274.949	0.56
275.32	0.55
275.69	0.51
276.061	0.52
276.431	0.48
276.802	0.41
277.172	0.41
277.542	0.41
277.913	0.43
278.283	0.43
278.653	0.43
279.023	0.43
279.394	0.48
279.764	0.48
280.134	0.53
280.504	0.49
280.874	0.53
281.244	0.49
281.614	0.48
281.983	0.45
282.353	0.48
282.723	0.49
283.093	0.51
283.462	0.5
283.832	0.49
284.202	0.44
284.571	0.42
284.941	0.47
285.31	0.55
285.68	0.57
286.049	0.61
286.418	0.6
286.788	0.58
287.157	0.59
287.526	0.56
287.895	0.54
288.264	0.54
288.633	0.49
289.002	0.45
289.371	0.46
289.74	0.46
290.109	0.43
290.478	0.43
290.847	0.48
291.216	0.51
291.585	0.44
291.953	0.36
292.322	0.35
292.691	0.32
293.059	0.27
293.428	0.28
293.796	0.3
294.165	0.28
294.533	0.2
294.901	0.2
295.27	0.24
295.638	0.22
296.006	0.16
296.374	0.16
296.743	0.18
297.111	0.16
297.479	0.18
297.847	0.23
298.215	0.21
298.583	0.18
298.95	0.17
299.318	0.23
299.686	0.2
300.054	0.17
300.422	0.17
300.789	0.18
301.157	0.16
301.525	0.18
301.892	0.2
302.26	0.18
302.627	0.22
302.994	0.16
303.362	0.18
303.729	0.19
304.097	0.15
304.464	0.1
304.831	0.14
305.198	0.19
305.565	0.22
305.932	0.16
306.299	0.12
306.666	0.09
307.033	0.04
307.4	0.1
307.767	0.04
308.134	0.05
308.501	-0
308.867	0.03
309.234	0.01
309.601	0.02
309.967	0.02
310.334	0.06
310.701	0.02
311.067	0.01
311.433	0.09
311.8	0.03
312.166	0.09
312.533	0.02
312.899	-0.02
313.265	0.03
313.631	0.07
313.997	0.07
314.363	0.04
314.729	-0.03
315.096	-0.02
315.461	0.01
315.827	0.02
316.193	0.05
316.559	0.05
316.925	0.12
317.291	0.13
317.656	0.15
318.022	0.11
318.388	0.16
318.753	0.16
319.119	0.15
319.484	0.19
319.85	0.2
320.215	0.22
320.581	0.18
320.946	0.19
321.311	0.13
321.676	0.15
322.042	0.17
322.407	0.07
322.772	0.07
323.137	0
323.502	0.05
323.867	0.09
324.232	0.07
324.597	0.07
324.962	0.05
325.327	0
325.691	-0.04
326.056	-0.1
326.421	-0.12
326.785	-0.13
327.15	-0.14
327.514	-0.2
327.879	-0.23
328.243	-0.18
328.608	-0.24
328.972	-0.22
329.337	-0.24
329.701	-0.26
330.065	-0.27
330.429	-0.21
330.794	-0.2
331.158	-0.18
331.522	-0.13
331.886	-0.18
332.25	-0.14
332.614	-0.15
332.978	-0.17
333.342	-0.13
333.705	-0.17
334.069	-0.18
334.433	-0.16
334.797	-0.16
335.16	-0.14
335.524	-0.13
335.887	-0.15
336.251	-0.15
336.614	-0.11
336.978	-0.05
337.341	-0.14
337.705	-0.16
338.068	-0.2
338.431	-0.21
338.794	-0.21
339.158	-0.19
339.521	-0.22
339.884	-0.26
340.247	-0.27
340.61	-0.26
340.973	-0.24
341.336	-0.24
341.699	-0.31
342.062	-0.32
342.424	-0.32
342.787	-0.26
343.15	-0.24
343.512	-0.27
343.875	-0.27
344.238	-0.26
344.6	-0.28
344.963	-0.3
345.325	-0.34
345.688	-0.38
346.05	-0.42
346.412	-0.38
346.775	-0.33
347.137	-0.3
347.499	-0.32
347.861	-0.27
348.223	-0.29
348.585	-0.3
348.947	-0.28
349.309	-0.28
349.671	-0.26
350.033	-0.29
350.395	-0.27
350.757	-0.27
351.118	-0.33
351.48	-0.33
351.842	-0.37
352.203	-0.39
352.565	-0.39
352.927	-0.36
353.288	-0.37
353.65	-0.39
354.011	-0.34
354.372	-0.23
354.734	-0.2
355.095	-0.14
355.456	-0.16
355.817	-0.22
356.179	-0.26
356.54	-0.22
356.901	-0.27
357.262	-0.3
357.623	-0.29
357.984	-0.19
358.345	-0.19
358.705	-0.2
359.066	-0.21
359.427	-0.24
359.788	-0.25
360.148	-0.16
360.509	-0.13
360.87	-0.07
361.23	-0.06
361.591	0
361.951	-0.06
362.312	-0.07
362.672	-0.03
363.032	-0.01
363.393	-0.03
363.753	-0.05
364.113	-0.14
364.473	-0.13
364.833	-0.11
365.193	-0.13
365.553	-0.12
365.913	-0.13
366.273	-0.14
366.633	-0.16
366.993	-0.28
367.353	-0.37
367.713	-0.32
368.072	-0.35
368.432	-0.35
368.792	-0.37
369.151	-0.4
369.511	-0.44
369.87	-0.46
370.23	-0.43
370.589	-0.43
370.949	-0.41
371.308	-0.43
371.667	-0.42
372.027	-0.44
372.386	-0.49
372.745	-0.5
373.104	-0.5
373.463	-0.47
373.822	-0.46
374.181	-0.46
374.54	-0.48
374.899	-0.49
375.258	-0.48
375.617	-0.45
375.975	-0.37
376.334	-0.34
376.693	-0.32
377.052	-0.22
377.41	-0.2
377.769	-0.15
378.127	-0.16
378.486	-0.15
378.844	-0.17
379.202	-0.2
379.561	-0.26
379.919	-0.29
380.277	-0.25
380.636	-0.28
380.994	-0.29
381.352	-0.33
381.71	-0.28
382.068	-0.18
382.426	-0.23
382.784	-0.24
383.142	-0.21
383.5	-0.21
383.857	-0.11
384.215	-0.06
384.573	-0.13
384.931	-0.16
385.288	-0.14
385.646	-0.22
386.003	-0.25
386.361	-0.28
386.718	-0.29
387.076	-0.25
387.433	-0.27
387.791	-0.26
388.148	-0.26
388.505	-0.23
388.862	-0.15
389.22	-0.17
389.577	-0.12
389.934	-0.08
390.291	-0.02
390.648	-0.07
391.005	-0.14
391.362	-0.14
391.718	-0.19
392.075	-0.23
392.432	-0.22
392.789	-0.33
393.145	-0.36
393.502	-0.35
393.859	-0.35
394.215	-0.3
394.572	-0.28
394.928	-0.3
395.285	-0.29
395.641	-0.3
395.997	-0.3
396.354	-0.28
396.71	-0.21
397.066	-0.25
397.422	-0.17
397.778	-0.26
398.134	-0.2
398.491	-0.3
398.846	-0.39
399.202	-0.33
399.558	-0.35
399.914	-0.35
400.27	-0.36
400.626	-0.35
400.981	-0.25
401.337	-0.22
401.693	-0.16
402.048	-0.15
402.404	-0.14
402.759	-0.14
403.115	-0.18
403.47	-0.25
403.826	-0.24
404.181	-0.32
404.536	-0.32
404.892	-0.34
405.247	-0.38
405.602	-0.44
405.957	-0.37
406.312	-0.43
406.667	-0.4
407.022	-0.46
407.377	-0.34
407.732	-0.31
408.087	-0.39
408.442	-0.32
408.796	-0.38
409.151	-0.31
409.506	-0.21
409.86	-0.3
410.215	-0.36
410.57	-0.43
410.924	-0.42
411.279	-0.41
411.633	-0.45
411.987	-0.43
412.342	-0.35
412.696	-0.36
413.05	-0.3
413.404	-0.24
413.758	-0.19
414.113	-0.11
414.467	-0.07
414.821	-0.17
415.175	-0.14
415.529	-0.2
415.882	-0.21
416.236	-0.33
416.59	-0.36
416.944	-0.35
417.298	-0.34
417.651	-0.33
418.005	-0.28
418.358	-0.28
418.712	-0.31
419.065	-0.38
419.419	-0.33
419.772	-0.37
420.126	-0.31
420.479	-0.22
420.832	-0.31
421.185	-0.29
421.539	-0.29
421.892	-0.27
422.245	-0.3
422.598	-0.28
422.951	-0.33
423.304	-0.4
423.657	-0.35
424.01	-0.43
424.363	-0.33
424.715	-0.23
425.068	-0.18
425.421	-0.14
425.773	-0.16
426.126	-0.04
426.479	0.02
426.831	-0.01
427.184	-0.06
427.536	0.04
427.889	0.1
428.241	0.13
428.593	0.18
428.945	0.17
429.298	0.18
429.65	0.26
430.002	0.23
430.354	0.31
430.706	0.36
431.058	0.4
431.41	0.29
431.762	0.25
432.114	0.29
432.466	0.33
432.817	0.33
433.169	0.3
433.521	0.22
433.872	0.3
434.224	0.32
434.576	0.36
434.927	0.23
435.279	0.22
435.63	0.24
435.981	0.29
436.333	0.24
436.684	0.3
437.035	0.3
437.387	0.28
437.738	0.28
438.089	0.28
438.44	0.32
438.791	0.22
439.142	0.16
439.493	0.16
439.844	0.13
440.195	0.2
440.545	0.25
440.896	0.28
441.247	0.29
441.598	0.37
441.948	0.36
442.299	0.37
442.649	0.36
443	0.32
443.35	0.34
443.701	0.34
444.051	0.33
444.401	0.24
444.752	0.27
445.102	0.28
445.452	0.2
445.802	0.13
446.152	0.12
446.502	0.1
446.852	-0.01
447.202	-0.01
447.552	0.08
447.902	0.07
448.252	-0.04
448.602	0.18
448.952	0.22
449.301	0.25
449.651	0.24
450.001	0.18
450.35	0.09
450.7	0.14
451.049	0.19
451.399	0.19
451.748	0.17
452.097	0.29
452.447	0.28
452.796	0.32
453.145	0.37
453.494	0.27
453.843	0.31
454.193	0.36
454.542	0.38
454.891	0.41
455.239	0.36
455.588	0.51
455.937	0.44
456.286	0.48
456.635	0.45
456.984	0.53
457.332	0.28
457.681	0.18
458.03	0.22
458.378	0.24
458.727	0.39
459.075	0.45
459.423	0.49
459.772	0.53
460.12	0.48
460.468	0.58
460.817	0.46
461.165	0.49
461.513	0.46
461.861	0.36
462.209	0.43
462.557	0.52
462.905	0.5
463.253	0.58
463.601	0.74
463.949	0.75
464.297	0.67
464.644	0.81
464.992	0.83
465.34	0.85
465.687	0.9
466.035	0.87
466.383	0.94
466.73	0.85
467.078	0.76
467.425	0.68
467.772	0.67
468.12	0.61
468.467	0.48
468.814	0.49
469.161	0.43
469.508	0.43
469.856	0.44
470.203	0.46
470.55	0.61
470.897	0.6
471.243	0.47
471.59	0.57
471.937	0.54
472.284	0.46
472.631	0.4
472.977	0.42
473.324	0.37
473.671	0.28
474.017	0.27
474.364	0.26
474.71	0.36
475.057	0.33
475.403	0.36
475.749	0.47
476.096	0.42
476.442	0.47
476.788	0.48
477.134	0.57
477.48	0.59
477.826	0.65
478.172	0.63
478.518	0.64
478.864	0.62
479.21	0.67
479.556	0.65
479.902	0.71
480.248	0.72
480.593	0.66
480.939	0.61
481.285	0.72
481.63	0.75
481.976	0.79
482.321	0.82
482.667	0.93
483.012	0.94
483.357	0.96
483.703	0.97
484.048	1.06
484.393	1.11
484.738	1.2
485.084	1.22
485.429	1.27
485.774	1.29
486.119	1.37
486.464	1.42
486.808	1.53
487.153	1.64
487.498	1.75
487.843	1.77
488.188	1.95
488.532	2.11
488.877	2.26
489.222	2.53
489.566	2.73
489.911	2.97
490.255	3.19
490.6	3.4
490.944	3.69
491.288	3.94
491.633	4.36
491.977	4.74
492.321	5.12
492.665	5.43
493.009	5.77
493.353	6.23
493.697	6.59
494.041	7.04
494.385	7.5
494.729	7.9
495.073	8.41
495.417	8.91
495.76	9.42
496.104	10.02
496.448	10.7
496.791	11.32
497.135	11.91
497.479	12.58
497.822	13.2
498.165	13.9
498.509	14.6
498.852	15.37
499.196	16.16
499.539	16.97
499.882	17.66
500.225	18.36
500.568	19.02
500.911	19.77
501.254	20.55
501.597	21.3
501.94	21.99
502.283	22.78
502.626	23.54
502.969	24.33
503.312	25.14
503.654	25.9
503.997	26.63
504.34	27.41
504.682	28.03
505.025	28.64
505.367	29.42
505.71	30.09
506.052	30.7
506.395	31.43
506.737	32.11
507.079	32.84
507.421	33.49
507.764	34.05
508.106	34.51
508.448	35.17
508.79	35.76
509.132	36.36
509.474	36.95
509.816	37.45
510.158	38.03
510.499	38.56
510.841	39.18
511.183	39.59
511.525	40.1
511.866	40.6
512.208	41.05
512.549	41.59
512.891	42.03
513.232	42.73
513.574	43.32
513.915	43.6
514.256	44.09
514.598	44.63
514.939	45.02
515.28	45.42
515.621	45.74
515.962	46.12
516.303	46.64
516.644	47.12
516.985	47.54
517.326	47.92
517.667	48.31
518.008	48.61
518.349	48.97
518.69	49.39
519.03	49.79
519.371	50.15
519.712	50.56
520.052	50.83
520.393	51.02
520.733	51.33
521.074	51.67
521.414	52.08
521.754	52.25
522.095	52.52
522.435	52.86
522.775	53.13
523.115	53.25
523.455	53.44
523.795	53.76
524.135	54.02
524.475	54.26
524.815	54.47
525.155	54.83
525.495	54.89
525.835	55.14
526.175	55.42
526.514	55.59
526.854	55.88
527.194	55.98
527.533	56.1
527.873	56.22
528.212	56.44
528.552	56.67
528.891	56.89
529.23	57.1
529.57	57.31
529.909	57.45
530.248	57.56
530.587	57.73
530.927	57.83
531.266	57.92
531.605	58.04
531.944	58.23
532.283	58.39
532.621	58.51
532.96	58.81
533.299	58.9
533.638	59.07
533.977	59.44
534.315	59.47
534.654	59.43
534.992	59.57
535.331	59.6
535.67	59.76
536.008	59.9
536.346	60.01
536.685	59.94
537.023	60
537.361	60.31
537.7	60.42
538.038	60.35
538.376	60.35
538.714	60.49
539.052	60.45
539.39	60.59
539.728	60.73
540.066	60.88
540.404	60.94
540.741	60.98
541.079	60.86
541.417	60.77
541.755	60.88
542.092	60.77
542.43	60.7
542.767	60.74
543.105	60.61
543.442	60.8
543.78	60.92
544.117	60.89
544.454	61.03
544.792	61.1
545.129	61.33
545.466	61.34
545.803	61.29
546.14	61.42
546.477	61.57
546.814	61.6
547.151	61.52
547.488	61.7
547.825	61.85
548.162	61.85
548.499	61.87
548.835	61.97
549.172	62.13
549.509	62.19
549.845	62.33
550.182	62.28
550.518	62.38
550.855	62.47
551.191	62.49
551.528	62.79
551.864	62.83
552.2	62.84
552.537	62.93
552.873	62.82
553.209	62.93
553.545	62.83
553.881	62.93
554.217	62.89
554.553	62.89
554.889	62.92
555.225	62.87
555.561	63.06
555.896	63.09
556.232	63.14
556.568	63.17
556.903	63.38
557.239	63.36
557.575	63.39
557.91	63.67
558.245	63.44
558.581	63.44
558.916	63.54
559.252	63.64
559.587	63.93
559.922	63.93
560.257	64.02
560.592	64.11
560.928	64.15
561.263	64.31
561.598	64.4
561.933	64.62
562.267	64.75
562.602	64.86
562.937	64.98
563.272	65.05
563.607	65.17
563.941	65.3
564.276	65.34
564.611	65.29
564.945	65.35
565.28	65.34
565.614	65.31
565.949	65.23
566.283	65.15
566.617	65.4
566.951	65.66
567.286	65.77
567.62	65.77
567.954	65.7
568.288	65.75
568.622	65.7
568.956	65.73
569.29	65.83
569.624	65.67
569.958	65.64
570.292	65.63
570.626	65.7
570.959	65.87
571.293	65.79
571.627	65.9
571.96	65.97
572.294	66.14
572.627	66.06
572.961	66.09
573.294	66.17
573.627	66.3
573.961	66.4
574.294	66.42
574.627	66.65
574.961	66.68
575.294	66.62
575.627	66.75
575.96	66.67
576.293	66.53
576.626	66.51
576.959	66.66
577.292	66.75
577.624	66.75
577.957	66.89
578.29	66.9
578.623	66.86
578.955	66.84
579.288	66.75
579.62	66.86
579.953	66.76
580.285	66.73
580.618	66.63
580.95	66.75
581.282	66.87
581.615	67.03
581.947	66.95
582.279	67.13
582.611	67.24
582.943	67.11
583.275	67.1
583.607	67.29
583.939	67.11
584.271	67.19
584.603	67.41
584.935	67.48
585.267	67.34
585.598	67.27
585.93	67.27
586.262	67.34
586.593	67.43
586.925	67.55
587.256	67.57
587.588	67.55
587.919	67.48
588.25	67.64
588.582	67.78
588.913	67.97
589.244	68.03
589.575	68.09
589.907	67.94
590.238	68
590.569	67.93
590.9	67.88
591.231	67.88
591.562	67.85
591.892	67.58
592.223	67.54
592.554	67.62
592.885	67.63
593.215	67.57
593.546	67.52
593.877	67.5
594.207	67.48
594.538	67.47
594.868	67.45
595.198	67.39
595.529	67.4
595.859	67.41
596.189	67.55
596.52	67.45
596.85	67.47
597.18	67.17
597.51	67.16
597.84	67.15
598.17	67.15
598.5	67.09
598.83	67.04
599.16	67.11
599.489	67.18
599.819	67.33
600.149	67.36
600.479	67.35
600.808	67.21
601.138	67.12
601.467	67.22
601.797	67.34
602.126	67.34
602.456	67.36
602.785	67.45
603.114	67.39
603.443	67.44
603.773	67.34
604.102	67.44
604.431	67.37
604.76	67.43
605.089	67.32
605.418	67.49
605.747	67.4
606.076	67.3
606.405	67.13
606.733	67.23
607.062	67.27
607.391	67.02
607.72	66.98
608.048	66.88
608.377	66.91
608.705	67.06
609.034	67.13
609.362	67.31
609.69	67.42
610.019	67.43
610.347	67.52
610.675	67.71
611.004	67.61
611.332	67.59
611.66	67.74
611.988	67.77
612.316	67.81
612.644	67.84
612.972	67.69
613.3	67.86
613.627	67.8
613.955	67.97
614.283	67.65
614.611	67.72
614.938	67.55
615.266	67.32
615.593	67.58
615.921	67.46
616.248	67.5
616.576	67.48
616.903	67.44
617.23	67.46
617.558	67.53
617.885	67.31
618.212	67.2
618.539	67.16
618.866	66.69
619.193	66.5
619.52	66.83
619.847	66.78
620.174	66.69
620.501	66.33
620.828	66.2
621.155	66.41
621.481	66.1
621.808	65.98
622.135	65.91
622.461	66.03
622.788	66.09
623.114	66.17
623.441	66.14
623.767	66.06
624.093	66.19
624.42	66.06
624.746	66.22
625.072	65.9
625.398	66.14
625.725	66.03
626.051	65.98
626.377	65.85
626.703	65.55
627.029	65.93
627.354	66.2
627.68	65.54
628.006	65.12
628.332	65.17
628.658	65.22
628.983	65.26
629.309	65.21
629.634	65.2
629.96	65.07
630.285	64.76
630.611	64.96
630.936	65.39
631.262	65.88
631.587	65.99
631.912	66.28
632.237	66.61
632.562	67.02
632.887	67
633.213	67.51
633.538	67.3
633.863	66.83
634.187	66.78
634.512	66.83
634.837	67.11
635.162	66.86
635.487	66.21
635.811	66.28
636.136	66.89
636.461	67.1
636.785	67.35
637.11	67.19
637.434	66.98
637.758	67.06
638.083	66.97
638.407	67.11
638.731	67.33
639.056	66.69
639.38	66.45
639.704	66.57
640.028	66.63
640.352	66.28
640.676	66
641	65.65
641.324	65.04
641.648	64.79
641.972	65.6
642.295	65.84
642.619	65.97
642.943	65.44
643.266	65.27
643.59	65.07
643.913	64.85
644.237	64.52
644.56	64.12
644.884	64.55
645.207	64.9
645.53	64.5
645.854	64.66
646.177	64.99
646.5	64.98
646.823	65.25
647.146	65.37
647.469	65.21
647.792	65.6
648.115	65.24
648.438	65.66
648.761	66.42
649.084	66.96
649.406	67.36
649.729	67.59
650.052	67.38
650.374	67.15
650.697	67.13
651.019	67.3
651.342	67.48
651.664	67.87
651.987	68.05
652.309	68.08
652.631	68.3
652.953	68.14
653.276	67.97
653.598	68.23
653.92	68.26
654.242	68.36
654.564	68.43
654.886	68.19
655.208	68.32
655.53	68.4
655.851	68.09
656.173	68.17
656.495	68.19
656.816	67.73
657.138	67.62
657.46	67.25
657.781	66.81
658.103	66.04
658.424	66.33
658.746	66.42
659.067	66.3
659.388	65.87
659.709	65.12
660.031	64.94
660.352	64.23
660.673	63.71
660.994	64.15
661.315	64.75
661.636	64.95
661.957	64.7
662.278	65.05
662.599	65.29
662.919	65.56
663.24	65.3
663.561	65.72
663.881	65.92
664.202	66.09
664.523	65.07
664.843	65.75
665.164	66.05
665.484	66.69
665.804	66.55
666.125	67.31
666.445	67.86
666.765	67.88
667.085	67.69
667.405	67.71
667.726	68.31
668.046	68.58
668.366	68
668.686	67.51
669.005	66.74
669.325	65.72
669.645	64.93
669.965	64.74
670.285	63.72
670.604	63.44
670.924	63.53
671.243	63.49
671.563	63.26
671.882	63.36
672.202	62.71
672.521	63.11
672.841	62.97
673.16	62.08
673.479	62.1
673.798	62.34
674.117	62.85
674.437	62.2
674.756	62.36
675.075	62.57
675.394	61.57
675.713	61.19
676.031	60.85
676.35	61.25
676.669	61.29
676.988	61.72
677.306	62.27
677.625	62.35
677.944	62.78
678.262	63.07
678.581	63.4
678.899	63.83
679.218	63.39
679.536	62.76
679.854	63.14
680.172	62.94
680.491	62.92
680.809	62.78
681.127	63.5
681.445	63.04
681.763	63.13
682.081	62.92
682.399	62.35
682.717	62.43
683.035	62.66
683.352	63.39
683.67	62.96
683.988	63.63
684.306	64.08
684.623	64.8
684.941	64.99
685.258	65.16
685.576	65.85
685.893	65.66
686.211	65.92
686.528	65.34
686.845	65.11
687.162	65.55
687.48	64.96
687.797	65.37
688.114	65.39
688.431	65.64
688.748	65.5
689.065	64.84
689.382	65.74
689.699	65.59
690.015	65.31
690.332	66.66
690.649	65.74
690.966	65.5
691.282	65.45
691.599	66.23
691.915	65.06
692.232	64.7
692.548	64.5
692.865	64.03
693.181	64.1
693.497	63.09
693.813	63.25
694.13	63.33
694.446	62.79
694.762	62.75
695.078	62.24
695.394	64.05
695.71	63.35
696.026	63.66
696.342	63.49
696.658	64.58
696.973	66.4
697.289	66.62
697.605	67.02
697.92	66.68
698.236	66.13
698.551	67.01
698.867	67.12
699.182	66.93
699.498	65.61
699.813	66.7
700.128	67.8
700.444	67.6
700.759	67.95
701.074	67.69
701.389	67.37
701.704	66.73
702.019	66.33
702.334	68.22
702.649	68.31
702.964	69.12
703.279	67.89
703.594	67.86
703.908	68.41
704.223	68.08
704.538	66.63
704.852	64.39
705.167	62.96
705.481	62.5
705.796	63.27
706.11	62.53
706.425	61.67
706.739	61.39
707.053	61.31
707.368	62.14
707.682	62.19
707.996	61.21
708.31	60.72
708.624	61.45
708.938	62.09
709.252	63.08
709.566	63.78
709.88	64.14
710.193	62.68
710.507	62.58
710.821	62.17
711.135	62.98
711.448	63.12
711.762	63.2
712.075	63.03
712.389	63.87
712.702	65.42
713.015	65.97
713.329	66.09
713.642	66.09
713.955	66.8
714.269	67.7
714.582	69.08
714.895	69.25
715.208	69.07
715.521	69.82
715.834	70.67
716.147	71.21
716.459	70.31
716.772	69.78
717.085	68.87
717.398	68.74
717.71	67.54
718.023	66.94
718.336	66.24
718.648	66.1
718.961	64.36
719.273	63.51
719.585	63.81
719.898	64.73
720.21	64.81
720.522	64.62
720.834	63.83
721.147	63.57
721.459	63.79
721.771	64.01
722.083	65.03
722.395	65.2
722.707	65.84
723.019	65.08
723.33	63.33
723.642	63.02
723.954	63.12
724.265	63.29
724.577	62.85
724.889	63.83
725.2	63.87
725.512	63.66
725.823	63.55
726.135	64.45
726.446	65.59
726.757	66.34
727.068	67.67
727.38	66.71
727.691	66.34
728.002	66.55
728.313	66.62
728.624	67.88
728.935	67.16
729.246	66.82
729.557	67.9
729.867	67.72
730.178	66.98
730.489	68.32
730.8	70.14
731.11	71.22
731.421	70.9
731.731	70.95
732.042	70.49
732.352	70.31
732.663	69.42
732.973	68.89
733.283	70.57
733.594	72.26
733.904	72.04
734.214	71.15
734.524	71.5
734.834	71.78
735.144	71.35
735.454	71.99
735.764	71.87
736.074	70.97
736.384	71.11
736.694	71.6
737.003	70.54
737.313	69.91
737.623	69.12
737.932	68.9
738.242	67.41
738.551	65.78
738.861	65.14
739.17	64.67
739.479	65.24
739.789	65.77
740.098	65.03
740.407	65.63
740.716	67.39
741.025	66.68
741.334	65.02
741.643	65.24
741.952	65.67
742.261	66.73
742.57	65.6
742.879	68.25
743.188	65.95
743.497	67.12
743.805	68.11
744.114	67.77
744.422	66.38
744.731	69.85
745.04	67.84
745.348	69.91
745.656	70.95
745.965	71.51
746.273	72.48
746.581	72.62
746.889	73.27
747.198	71.09
747.506	73.02
747.814	74.67
748.122	73.69
748.43	73.42
748.738	72.14
749.046	73.78
749.353	72.95
749.661	73.14
749.969	70.75
750.277	70.18
750.584	68.56
750.892	72.1
751.199	72.15
751.507	73.55
751.814	71.84
752.122	74.02
752.429	72.84
752.736	74.56
753.044	71.37
753.351	71.14
753.658	70.28
753.965	69.45
754.272	68.77
754.579	69.48
754.886	69.84
755.193	69.06
755.5	68.56
755.807	68.96
756.114	68.09
756.42	67.22
756.727	67.17
757.034	67.75
757.34	66.22
757.647	66.82
757.953	66.39
758.26	66.19
758.566	64.37
758.872	61.77
759.179	61.46
759.485	61.15
759.791	61.63
760.097	61.36
760.403	58.96
760.709	59.49
761.015	58.56
761.321	59
761.627	61.7
761.933	60.89
762.239	58.72
762.545	56.6
762.851	54.06
763.156	53.56
763.462	53.97
763.767	53.66
764.073	54.08
764.378	52.22
764.684	51.78
764.989	54.25
765.295	53.75
765.6	54.79
765.905	54.68
766.21	50.73
766.515	48.8
766.821	46.14
767.126	47.7
767.431	44.66
767.736	43.89
768.041	42.37
768.345	47.41
768.65	48.15
768.955	44.6
769.26	37.19
769.564	36.28
769.869	34.43
770.174	38.26
770.478	42.29
770.783	40.54
771.087	46.41
771.391	45.61
771.696	50.7
772	57.09
772.304	53.46
772.608	48.39
772.913	54.31
773.217	50.4
773.521	54.38
773.825	62.78
774.129	67.11
774.433	68.5
774.736	61.15
775.04	60.98
775.344	59.54
775.648	64.73
775.951	51.28
776.255	45.53
776.559	51.46
776.862	51.71
777.166	60.11
777.469	64.36
777.772	61.08
778.076	55.62
778.379	59.44
778.682	46.62
778.985	45.71
779.289	39.01
779.592	32.85
779.895	37.55
780.198	39.58
780.501	35.24
780.804	37.31
781.106	38.54
781.409	31.56
781.712	27.02
782.015	21.29
782.317	20.46
782.62	31.9
782.923	31.05
783.225	17.58
783.527	35.32
783.83	32.61
784.132	21.43
784.435	29.9
784.737	22.99
785.039	23.42
785.341	25.61
785.643	26.83
785.945	17.15
786.248	26.68
786.55	30.09
786.851	35.9
787.153	45.73
787.455	42.71
787.757	44.25
788.059	44.96
788.36	47.78
788.662	40.58
788.964	52.63
789.265	56.27
789.567	68.44
789.868	76.78
790.17	60.53
790.471	64
790.772	79.46
791.074	69.14
791.375	81.73
791.676	93.78
791.977	90.91
792.278	101.45
792.579	123.25
792.88	137.53
793.181	111.73
793.482	117.24
793.783	106.3
794.083	108.32
794.384	113.42
794.685	99.42
794.986	111.87
795.286	106.24
795.587	98.12
795.887	101.76
796.188	95.47
796.488	90
796.788	85.17
797.089	77.53
797.389	80.05
797.689	85.42
797.989	87.88
798.289	61.84
798.589	62.78
798.889	52.63
799.189	50.18
799.489	57.77
799.789	53.64
800.089	38.39
800.389	11.98
800.688	7.06
800.988	11.59
801.288	13.6
801.587	12.41
801.887	-3.64
802.186	-18.66
802.486	-10.31
802.785	0.29
803.085	-4.01
803.384	2.72
803.683	-28.26
803.982	-41.33
804.281	-62.24
804.58	-68.56
804.879	-260.8
805.178	-292.91
805.477	-120.9
805.776	-69.01
806.075	-110.72
806.374	-3.55
806.673	-56.89
806.971	-155.91
807.27	-1591.85
807.569	-2359.77
807.867	-1173.95
808.166	545.28
808.464	227.95
808.763	148.95
809.061	136.36
809.359	195.36
809.658	167.32
809.956	145.99
810.254	146.89
810.552	167.01
810.85	195.26
811.148	185.43
811.446	168.85
811.744	168.85
812.042	139.16
812.34	108.02
812.638	132.2
812.935	105.29
813.233	100.56
813.531	116.48
813.828	132.93
814.126	104.63
814.423	134.77
814.721	88.41
815.018	97.1
815.316	126.52
815.613	140.98
815.91	195.74
816.207	143.51
816.504	106.82
816.802	86.25
817.099	85.03
817.396	118.49
817.693	135.97
817.99	73.86
818.286	115.33
818.583	-36.26
818.88	83.37
819.177	39.79
819.473	-83
819.77	-126.58
820.067	-307.96
820.363	-146.58
820.66	49.73
820.956	-54.63
821.252	1300
821.549	-428.47
821.845	-167.77
822.141	236.53
822.437	270.84
822.734	646.62
823.03	-1275.15
823.326	-356.39
823.622	-421.78
823.918	-1928.07
824.213	-351.25
824.509	-472.39
824.805	-195.84
825.101	-63.44
825.397	38.81
825.692	13
825.988	19.86
826.283	16.16
826.579	8.59
826.874	103.88
827.17	561.54
827.465	-92.94
827.76	26.23
828.056	86.46
828.351	342.57
828.646	176.7
828.941	270.4
829.236	259.33
829.531	181.3
829.826	167.21
830.121	178.12
830.416	228.92
830.711	207.54
831.006	199.22
831.3	164.68
831.595	144.64
831.89	149.7
832.184	115.1
832.479	120.49
832.773	101.46
833.068	105.6
833.362	111.61
833.656	117.79
833.951	99.05
834.245	106.39
834.539	121.08
834.833	119.29
835.127	103.33
835.421	88.7
835.715	91.65
836.009	94.69
836.303	95.46
836.597	90.51
836.891	100.64
837.185	109.54
837.478	95.89
837.772	87.39
838.066	102.32
838.359	106.93
838.653	94.49
838.946	98.54
839.24	96.08
839.533	111.35
839.826	177.76
840.119	216.26
840.413	182.69
840.706	215.84
840.999	162.22
841.292	184.88
841.585	180.79
841.878	139.96
842.171	179.44
842.464	272.06
842.757	285.42
843.049	286.43
843.342	241.27
843.635	217.84
843.927	256.19
844.22	279.12
844.513	371.72
844.805	764.14
845.098	1111.76
845.39	1126.82
845.682	1089.57
845.975	2096.98
846.267	690.67
846.559	523.79
846.851	423.64
847.143	269.37
847.435	324.98
847.727	327.91
848.019	529.11
848.311	1067.8
848.603	2254.51
848.895	-1268.81
849.186	-348.22
849.478	-19152.17
849.77	1406.99
850.061	2178.97
850.353	-3177.31
850.645	-441.57
850.936	-415.46
851.227	-48071.43
851.519	-948.23
851.81	675.05
852.101	416.99
852.393	1189.4
852.684	-1656.29
852.975	-535.6
853.266	-216.99
853.557	-186.23
853.848	-98.06
854.139	-46.88
854.43	-87.92
854.72	-156.49
855.011	-292.91
855.302	-242.5
855.593	-317.23
855.883	-343.56
856.174	-326.55
856.464	-1226.78
856.755	1421.08
857.045	701.59
857.336	648.48
857.626	-3113.79
857.916	2490.08
858.206	-16091.3
858.497	-377.32
858.787	-538.35
859.077	-750.11
859.367	-298.54
859.657	-420.16
859.947	-1708.38
860.237	2152.55
860.527	448.27
860.816	409.11
861.106	192.24
861.396	266.14
861.685	421.33
861.975	677.94
862.265	854.03
862.554	498.93
862.844	-1961.2
863.133	-1395.06
863.422	-1355.87
863.712	-456.26
864.001	-134.3
864.29	-133.18
864.579	-129.96
864.868	-198.08
865.157	-200.95
865.446	-229.06
865.735	-368.02
866.024	-268.32
866.313	-139.83
866.602	-308.57
866.891	-320.48
867.179	-205.11
867.468	-176.11
