Data from T2_Reflection__61__19-30-30-204.txt Node

Date: Fri Jun 04 19:30:30 CEST 2021
User: mabdelazizm
Spectrometer: FLMS18565
Trigger mode: 0
Integration Time (sec): 2.000000E0
Scans to average: 1
Electric dark correction enabled: true
Nonlinearity correction enabled: false
Boxcar width: 12
XAxis mode: Wavelengths
Number of Pixels in Spectrum: 2048
>>>>>Begin Spectral Data<<<<<
179.071	-94.72
179.452	-95.97
179.833	-230.73
180.214	-240.38
180.595	-225.83
180.977	-364.26
181.358	-353.58
181.739	-275.98
182.12	-153.2
182.501	-168.3
182.882	-252.28
183.262	-794.29
183.643	-135.71
184.024	-90.76
184.405	-39.44
184.786	-23.37
185.166	-29.28
185.547	-15.28
185.927	-3.79
186.308	-8.02
186.689	3.8
187.069	7.68
187.449	0.21
187.83	-3.48
188.21	-7.45
188.59	2.27
188.971	5.5
189.351	7.22
189.731	7.23
190.111	6.51
190.491	1.95
190.871	0.32
191.251	0.73
191.631	-1.49
192.011	-2.6
192.391	0.18
192.771	1.97
193.151	0.87
193.531	4.05
193.91	6.11
194.29	7.29
194.67	7.03
195.049	5.05
195.429	4.86
195.808	4.9
196.188	0.08
196.567	-1.3
196.946	1.42
197.326	3.08
197.705	4.38
198.084	2.86
198.464	1.4
198.843	1.96
199.222	1.09
199.601	1.3
199.98	1.72
200.359	2.51
200.738	4.23
201.117	0.18
201.496	-4.1
201.875	-2.28
202.254	-3.97
202.632	-4.76
203.011	-3.03
203.39	-4.66
203.768	-2.97
204.147	-3.68
204.525	-4.94
204.904	-6.4
205.282	-5.46
205.661	-7.07
206.039	-5.72
206.418	-8.02
206.796	-7.19
207.174	-7.59
207.552	-9.1
207.931	-9.7
208.309	-10.46
208.687	-9.61
209.065	-8.03
209.443	-8.64
209.821	-9.01
210.199	-12.76
210.577	-10.31
210.954	-3.98
211.332	-6.06
211.71	-5.75
212.088	-5.18
212.465	-5.29
212.843	-4.59
213.221	-4.01
213.598	-0.43
213.976	-1.48
214.353	-2.23
214.731	-4.21
215.108	-2.68
215.485	-3.3
215.863	-3.35
216.24	-4.63
216.617	-4.04
216.994	-3.62
217.371	-1.76
217.749	-0.89
218.126	-0.9
218.503	-0.8
218.88	-0.57
219.256	-0.96
219.633	-0.32
220.01	0.63
220.387	0.62
220.764	1.1
221.14	1.67
221.517	1.13
221.894	-0.02
222.27	-0.49
222.647	-1.41
223.023	-1.84
223.4	-1.38
223.776	-0.69
224.153	-0.87
224.529	-0.59
224.905	-0.22
225.282	-0.01
225.658	-0.02
226.034	-0.52
226.41	-0.47
226.786	-0.97
227.162	-1.05
227.538	-1.36
227.914	-1.54
228.29	-1.62
228.666	-1.36
229.042	-1.23
229.418	-1.23
229.793	-1.43
230.169	-1.43
230.545	-1.65
230.92	-1.51
231.296	-1.36
231.672	-1.1
232.047	-0.96
232.422	-0.99
232.798	-0.87
233.173	-0.9
233.549	-0.64
233.924	-0.49
234.299	-0.4
234.674	-0.38
235.05	-0.26
235.425	-0.2
235.8	-0.1
236.175	0.02
236.55	0.07
236.925	0.19
237.3	0.3
237.675	0.37
238.049	0.33
238.424	0.32
238.799	0.33
239.174	0.43
239.548	0.49
239.923	0.65
240.297	0.6
240.672	0.57
241.046	0.58
241.421	0.54
241.795	0.48
242.17	0.39
242.544	0.42
242.918	0.41
243.293	0.39
243.667	0.34
244.041	0.43
244.415	0.45
244.789	0.49
245.163	0.49
245.537	0.49
245.911	0.48
246.285	0.52
246.659	0.49
247.033	0.52
247.406	0.57
247.78	0.65
248.154	0.61
248.528	0.6
248.901	0.59
249.275	0.51
249.648	0.58
250.022	0.58
250.395	0.56
250.769	0.56
251.142	0.64
251.515	0.69
251.888	0.67
252.262	0.65
252.635	0.64
253.008	0.61
253.381	0.55
253.754	0.53
254.127	0.51
254.5	0.48
254.873	0.44
255.246	0.42
255.619	0.42
255.992	0.42
256.364	0.4
256.737	0.35
257.11	0.33
257.483	0.39
257.855	0.39
258.228	0.4
258.6	0.41
258.973	0.4
259.345	0.47
259.718	0.46
260.09	0.46
260.462	0.37
260.834	0.35
261.207	0.38
261.579	0.35
261.951	0.36
262.323	0.36
262.695	0.39
263.067	0.38
263.439	0.43
263.811	0.48
264.183	0.52
264.555	0.56
264.927	0.55
265.298	0.52
265.67	0.49
266.042	0.46
266.413	0.43
266.785	0.37
267.156	0.36
267.528	0.36
267.899	0.33
268.271	0.35
268.642	0.25
269.013	0.23
269.385	0.24
269.756	0.26
270.127	0.19
270.498	0.18
270.87	0.21
271.241	0.18
271.612	0.2
271.983	0.21
272.354	0.2
272.724	0.18
273.095	0.15
273.466	0.11
273.837	0.1
274.208	0.1
274.578	0.1
274.949	0.13
275.32	0.19
275.69	0.16
276.061	0.15
276.431	0.11
276.802	0.04
277.172	0.04
277.542	0
277.913	0.03
278.283	0.09
278.653	0.12
279.023	0.14
279.394	0.25
279.764	0.25
280.134	0.26
280.504	0.26
280.874	0.23
281.244	0.19
281.614	0.22
281.983	0.14
282.353	0.2
282.723	0.26
283.093	0.26
283.462	0.28
283.832	0.32
284.202	0.33
284.571	0.32
284.941	0.36
285.31	0.43
285.68	0.48
286.049	0.47
286.418	0.47
286.788	0.51
287.157	0.52
287.526	0.47
287.895	0.44
288.264	0.45
288.633	0.38
289.002	0.35
289.371	0.41
289.74	0.38
290.109	0.38
290.478	0.33
290.847	0.34
291.216	0.38
291.585	0.28
291.953	0.19
292.322	0.15
292.691	0.1
293.059	0.02
293.428	-0.02
293.796	-0.05
294.165	-0.09
294.533	-0.2
294.901	-0.21
295.27	-0.16
295.638	-0.16
296.006	-0.23
296.374	-0.27
296.743	-0.25
297.111	-0.26
297.479	-0.25
297.847	-0.21
298.215	-0.26
298.583	-0.35
298.95	-0.33
299.318	-0.3
299.686	-0.25
300.054	-0.3
300.422	-0.29
300.789	-0.3
301.157	-0.23
301.525	-0.2
301.892	-0.19
302.26	-0.12
302.627	-0.05
302.994	-0.02
303.362	0
303.729	0.08
304.097	0.08
304.464	0.04
304.831	0.07
305.198	0.08
305.565	0.09
305.932	0.07
306.299	0.06
306.666	0.01
307.033	-0
307.4	0.05
307.767	0.02
308.134	0.03
308.501	0.06
308.867	0.08
309.234	0.11
309.601	0.15
309.967	0.16
310.334	0.17
310.701	0.11
311.067	0.09
311.433	0.09
311.8	0.01
312.166	-0.01
312.533	-0.08
312.899	-0.09
313.265	-0.08
313.631	-0.01
313.997	-0.02
314.363	-0.03
314.729	-0.03
315.096	-0.05
315.461	-0.05
315.827	-0.04
316.193	0
316.559	0.03
316.925	0.1
317.291	0.12
317.656	0.06
318.022	0.04
318.388	0.05
318.753	0.02
319.119	0.04
319.484	0.05
319.85	0.08
320.215	0.1
320.581	0.05
320.946	0.08
321.311	0.08
321.676	0.1
322.042	0.07
322.407	-0
322.772	0
323.137	0.03
323.502	0.08
323.867	0.13
324.232	0.12
324.597	0.12
324.962	0.11
325.327	0.09
325.691	0.04
326.056	0.03
326.421	0.01
326.785	0.01
327.15	-0.05
327.514	-0.06
327.879	-0.08
328.243	-0.08
328.608	-0.11
328.972	-0.02
329.337	-0.05
329.701	-0.02
330.065	-0.03
330.429	0.02
330.794	0.08
331.158	0.1
331.522	0.11
331.886	0.05
332.25	-0.06
332.614	-0.13
332.978	-0.18
333.342	-0.13
333.705	-0.08
334.069	-0.08
334.433	-0.15
334.797	-0.11
335.16	-0.12
335.524	-0.11
335.887	-0.11
336.251	-0.06
336.614	-0.07
336.978	-0.03
337.341	-0.04
337.705	-0.09
338.068	-0.15
338.431	-0.1
338.794	-0.15
339.158	-0.15
339.521	-0.21
339.884	-0.3
340.247	-0.31
340.61	-0.27
340.973	-0.24
341.336	-0.19
341.699	-0.19
342.062	-0.22
342.424	-0.24
342.787	-0.29
343.15	-0.27
343.512	-0.24
343.875	-0.25
344.238	-0.25
344.6	-0.31
344.963	-0.3
345.325	-0.32
345.688	-0.34
346.05	-0.38
346.412	-0.38
346.775	-0.41
347.137	-0.42
347.499	-0.49
347.861	-0.44
348.223	-0.38
348.585	-0.36
348.947	-0.34
349.309	-0.35
349.671	-0.34
350.033	-0.36
350.395	-0.34
350.757	-0.32
351.118	-0.31
351.48	-0.34
351.842	-0.36
352.203	-0.36
352.565	-0.4
352.927	-0.41
353.288	-0.44
353.65	-0.44
354.011	-0.46
354.372	-0.42
354.734	-0.39
355.095	-0.37
355.456	-0.37
355.817	-0.33
356.179	-0.33
356.54	-0.25
356.901	-0.32
357.262	-0.37
357.623	-0.39
357.984	-0.32
358.345	-0.29
358.705	-0.32
359.066	-0.33
359.427	-0.35
359.788	-0.37
360.148	-0.36
360.509	-0.4
360.87	-0.3
361.23	-0.37
361.591	-0.35
361.951	-0.35
362.312	-0.36
362.672	-0.33
363.032	-0.28
363.393	-0.31
363.753	-0.4
364.113	-0.44
364.473	-0.45
364.833	-0.41
365.193	-0.42
365.553	-0.45
365.913	-0.45
366.273	-0.47
366.633	-0.49
366.993	-0.58
367.353	-0.63
367.713	-0.57
368.072	-0.62
368.432	-0.59
368.792	-0.64
369.151	-0.61
369.511	-0.5
369.87	-0.58
370.23	-0.42
370.589	-0.37
370.949	-0.37
371.308	-0.37
371.667	-0.38
372.027	-0.44
372.386	-0.45
372.745	-0.39
373.104	-0.35
373.463	-0.35
373.822	-0.38
374.181	-0.38
374.54	-0.39
374.899	-0.26
375.258	-0.27
375.617	-0.28
375.975	-0.25
376.334	-0.15
376.693	-0.16
377.052	-0.1
377.41	-0.17
377.769	-0.1
378.127	-0.11
378.486	-0.24
378.844	-0.24
379.202	-0.34
379.561	-0.42
379.919	-0.44
380.277	-0.41
380.636	-0.46
380.994	-0.5
381.352	-0.49
381.71	-0.53
382.068	-0.51
382.426	-0.51
382.784	-0.51
383.142	-0.54
383.5	-0.5
383.857	-0.52
384.215	-0.51
384.573	-0.49
384.931	-0.48
385.288	-0.56
385.646	-0.65
386.003	-0.64
386.361	-0.62
386.718	-0.6
387.076	-0.59
387.433	-0.53
387.791	-0.51
388.148	-0.52
388.505	-0.47
388.862	-0.45
389.22	-0.44
389.577	-0.37
389.934	-0.3
390.291	-0.29
390.648	-0.28
391.005	-0.33
391.362	-0.33
391.718	-0.37
392.075	-0.39
392.432	-0.38
392.789	-0.39
393.145	-0.34
393.502	-0.34
393.859	-0.34
394.215	-0.34
394.572	-0.31
394.928	-0.35
395.285	-0.34
395.641	-0.36
395.997	-0.4
396.354	-0.4
396.71	-0.42
397.066	-0.38
397.422	-0.31
397.778	-0.33
398.134	-0.29
398.491	-0.35
398.846	-0.42
399.202	-0.43
399.558	-0.47
399.914	-0.47
400.27	-0.49
400.626	-0.47
400.981	-0.44
401.337	-0.46
401.693	-0.45
402.048	-0.56
402.404	-0.5
402.759	-0.49
403.115	-0.49
403.47	-0.46
403.826	-0.4
404.181	-0.42
404.536	-0.45
404.892	-0.49
405.247	-0.46
405.602	-0.48
405.957	-0.49
406.312	-0.56
406.667	-0.58
407.022	-0.7
407.377	-0.64
407.732	-0.55
408.087	-0.56
408.442	-0.49
408.796	-0.49
409.151	-0.42
409.506	-0.44
409.86	-0.43
410.215	-0.45
410.57	-0.56
410.924	-0.48
411.279	-0.55
411.633	-0.6
411.987	-0.6
412.342	-0.57
412.696	-0.55
413.05	-0.49
413.404	-0.46
413.758	-0.36
414.113	-0.32
414.467	-0.27
414.821	-0.3
415.175	-0.26
415.529	-0.25
415.882	-0.19
416.236	-0.22
416.59	-0.21
416.944	-0.24
417.298	-0.21
417.651	-0.16
418.005	-0.16
418.358	-0.15
418.712	-0.14
419.065	-0.17
419.419	-0.13
419.772	-0.15
420.126	-0.06
420.479	0.02
420.832	0.03
421.185	0.12
421.539	0.02
421.892	0.01
422.245	0.03
422.598	0.05
422.951	0.04
423.304	-0.06
423.657	-0.08
424.01	-0.18
424.363	-0.18
424.715	-0.18
425.068	-0.23
425.421	-0.24
425.773	-0.21
426.126	-0.13
426.479	-0.12
426.831	-0.17
427.184	-0.2
427.536	-0.21
427.889	-0.2
428.241	-0.22
428.593	-0.19
428.945	-0.18
429.298	-0.23
429.65	-0.25
430.002	-0.36
430.354	-0.13
430.706	-0.16
431.058	-0.09
431.41	-0.12
431.762	-0.17
432.114	-0.07
432.466	0
432.817	0.1
433.169	0.14
433.521	0.13
433.872	0.22
434.224	0.21
434.576	0.17
434.927	0.08
435.279	0.03
435.63	0.08
435.981	0.2
436.333	0.27
436.684	0.33
437.035	0.33
437.387	0.3
437.738	0.24
438.089	0.29
438.44	0.32
438.791	0.26
439.142	0.11
439.493	0.15
439.844	0.11
440.195	0.13
440.545	0.19
440.896	0.26
441.247	0.24
441.598	0.23
441.948	0.18
442.299	0.21
442.649	0.23
443	0.21
443.35	0.21
443.701	0.18
444.051	0.19
444.401	0.12
444.752	0.06
445.102	-0.06
445.452	-0.07
445.802	-0.04
446.152	-0.05
446.502	0.05
446.852	-0.05
447.202	-0.07
447.552	-0.03
447.902	-0.02
448.252	-0.14
448.602	0.33
448.952	0.34
449.301	0.33
449.651	0.3
450.001	0.24
450.35	0.18
450.7	0.28
451.049	0.31
451.399	0.37
451.748	0.41
452.097	0.59
452.447	0.51
452.796	0.56
453.145	0.69
453.494	0.62
453.843	0.69
454.193	0.71
454.542	0.75
454.891	0.8
455.239	0.65
455.588	0.74
455.937	0.77
456.286	0.78
456.635	0.7
456.984	0.77
457.332	0.21
457.681	0.12
458.03	0.12
458.378	0.06
458.727	0.08
459.075	0.19
459.423	0.18
459.772	0.12
460.12	-0.02
460.468	-0.02
460.817	-0.13
461.165	-0.02
461.513	-0.04
461.861	-0.18
462.209	-0.06
462.557	0.09
462.905	0.01
463.253	-0.01
463.601	0.08
463.949	0.08
464.297	0.1
464.644	0.11
464.992	0.13
465.34	0.12
465.687	0.26
466.035	0.22
466.383	0.27
466.73	0.25
467.078	0.24
467.425	0.26
467.772	0.28
468.12	0.18
468.467	0.2
468.814	0.25
469.161	0.18
469.508	0.24
469.856	0.22
470.203	0.25
470.55	0.32
470.897	0.33
471.243	0.22
471.59	0.3
471.937	0.28
472.284	0.22
472.631	0.15
472.977	0.19
473.324	0.22
473.671	0.11
474.017	0.11
474.364	-0.12
474.71	-0.02
475.057	-0.03
475.403	-0.07
475.749	-0.02
476.096	-0.02
476.442	-0.07
476.788	0.07
477.134	0.14
477.48	0.09
477.826	0.07
478.172	0.02
478.518	0.07
478.864	0.1
479.21	0.19
479.556	0.13
479.902	0.17
480.248	0.18
480.593	0.15
480.939	0.07
481.285	0.19
481.63	0.14
481.976	0.14
482.321	0.27
482.667	0.35
483.012	0.47
483.357	0.5
483.703	0.51
484.048	0.63
484.393	0.68
484.738	0.73
485.084	0.73
485.429	0.69
485.774	0.68
486.119	0.78
486.464	0.93
486.808	1.05
487.153	1.12
487.498	1.2
487.843	1.14
488.188	1.28
488.532	1.37
488.877	1.43
489.222	1.64
489.566	1.91
489.911	2.09
490.255	2.34
490.6	2.55
490.944	2.73
491.288	2.96
491.633	3.26
491.977	3.46
492.321	3.78
492.665	4.08
493.009	4.36
493.353	4.75
493.697	5.14
494.041	5.46
494.385	5.86
494.729	6.26
495.073	6.68
495.417	7.03
495.76	7.45
496.104	7.92
496.448	8.46
496.791	8.98
497.135	9.43
497.479	10.04
497.822	10.55
498.165	11.05
498.509	11.6
498.852	12.2
499.196	12.82
499.539	13.37
499.882	13.93
500.225	14.55
500.568	15.21
500.911	15.78
501.254	16.4
501.597	17.01
501.94	17.49
502.283	18.09
502.626	18.75
502.969	19.38
503.312	19.88
503.654	20.49
503.997	21.09
504.34	21.65
504.682	22.27
505.025	22.78
505.367	23.34
505.71	23.94
506.052	24.53
506.395	25.14
506.737	25.84
507.079	26.47
507.421	27
507.764	27.54
508.106	28.14
508.448	28.82
508.79	29.3
509.132	29.78
509.474	30.34
509.816	30.75
510.158	31.34
510.499	31.92
510.841	32.49
511.183	32.99
511.525	33.47
511.866	34.06
512.208	34.52
512.549	35.02
512.891	35.62
513.232	36.23
513.574	36.8
513.915	37.28
514.256	37.81
514.598	38.28
514.939	38.76
515.28	39.1
515.621	39.52
515.962	39.94
516.303	40.38
516.644	40.87
516.985	41.15
517.326	41.5
517.667	41.93
518.008	42.23
518.349	42.75
518.69	43.12
519.03	43.42
519.371	43.77
519.712	44.05
520.052	44.38
520.393	44.7
520.733	45.08
521.074	45.5
521.414	45.84
521.754	45.93
522.095	46.24
522.435	46.56
522.775	46.76
523.115	47.04
523.455	47.21
523.795	47.53
524.135	47.81
524.475	48.04
524.815	48.24
525.155	48.5
525.495	48.72
525.835	49.05
526.175	49.31
526.514	49.56
526.854	49.65
527.194	49.75
527.533	49.9
527.873	50.03
528.212	50.37
528.552	50.58
528.891	50.8
529.23	50.95
529.57	51.01
529.909	51.09
530.248	51.19
530.587	51.48
530.927	51.59
531.266	51.77
531.605	51.86
531.944	51.92
532.283	51.99
532.621	51.91
532.96	52.19
533.299	52.27
533.638	52.42
533.977	52.54
534.315	52.61
534.654	52.7
534.992	52.78
535.331	52.78
535.67	52.94
536.008	53.16
536.346	53.33
536.685	53.18
537.023	53.2
537.361	53.39
537.7	53.39
538.038	53.42
538.376	53.52
538.714	53.78
539.052	53.72
539.39	53.88
539.728	53.88
540.066	53.94
540.404	54.08
540.741	54.16
541.079	54.3
541.417	54.27
541.755	54.39
542.092	54.2
542.43	54.15
542.767	54.17
543.105	54.03
543.442	54.2
543.78	54.37
544.117	54.49
544.454	54.57
544.792	54.51
545.129	54.77
545.466	54.83
545.803	54.78
546.14	54.81
546.477	55
546.814	55.07
547.151	54.93
547.488	54.97
547.825	54.94
548.162	54.95
548.499	54.98
548.835	55.13
549.172	55.15
549.509	55.31
549.845	55.38
550.182	55.4
550.518	55.49
550.855	55.62
551.191	55.78
551.528	55.92
551.864	55.92
552.2	55.93
552.537	55.92
552.873	55.97
553.209	56.12
553.545	55.91
553.881	55.86
554.217	55.79
554.553	55.86
554.889	56
555.225	55.85
555.561	56.05
555.896	56.18
556.232	56.15
556.568	56.35
556.903	56.56
557.239	56.62
557.575	56.75
557.91	56.8
558.245	56.86
558.581	56.87
558.916	57.05
559.252	57.14
559.587	57.2
559.922	57.34
560.257	57.31
560.592	57.45
560.928	57.49
561.263	57.7
561.598	57.73
561.933	58.06
562.267	58.26
562.602	58.38
562.937	58.63
563.272	58.59
563.607	58.84
563.941	58.93
564.276	59.02
564.611	59.18
564.945	59.31
565.28	59.44
565.614	59.29
565.949	59.3
566.283	59.36
566.617	59.31
566.951	59.53
567.286	59.6
567.62	59.54
567.954	59.53
568.288	59.62
568.622	59.68
568.956	59.6
569.29	59.68
569.624	59.51
569.958	59.6
570.292	59.57
570.626	59.65
570.959	59.83
571.293	59.88
571.627	59.94
571.96	59.99
572.294	59.97
572.627	59.91
572.961	59.94
573.294	59.92
573.627	60
573.961	60.13
574.294	60.14
574.627	60.26
574.961	60.46
575.294	60.4
575.627	60.48
575.96	60.58
576.293	60.49
576.626	60.47
576.959	60.57
577.292	60.61
577.624	60.54
577.957	60.67
578.29	60.68
578.623	60.78
578.955	60.83
579.288	60.73
579.62	60.6
579.953	60.5
580.285	60.44
580.618	60.51
580.95	60.5
581.282	60.52
581.615	60.47
581.947	60.27
582.279	60.36
582.611	60.42
582.943	60.27
583.275	60.14
583.607	60.18
583.939	60.09
584.271	59.98
584.603	60.06
584.935	60.19
585.267	60.16
585.598	60.24
585.93	60.39
586.262	60.44
586.593	60.54
586.925	60.47
587.256	60.32
587.588	60.31
587.919	60.43
588.25	60.56
588.582	60.55
588.913	60.6
589.244	60.74
589.575	60.8
589.907	60.9
590.238	61.04
590.569	61.02
590.9	61.1
591.231	61.27
591.562	61.35
591.892	61.23
592.223	61.4
592.554	61.63
592.885	61.66
593.215	61.5
593.546	61.34
593.877	61.29
594.207	61.21
594.538	61.19
594.868	61
595.198	61.06
595.529	61.13
595.859	61.04
596.189	61.11
596.52	61.21
596.85	61.27
597.18	61.06
597.51	61.01
597.84	61.1
598.17	61.15
598.5	61.07
598.83	61.02
599.16	61.07
599.489	61.04
599.819	60.96
600.149	60.99
600.479	60.97
600.808	60.84
601.138	60.84
601.467	60.91
601.797	61.11
602.126	61.13
602.456	61.24
602.785	61.16
603.114	61.31
603.443	61.25
603.773	61.31
604.102	61.52
604.431	61.42
604.76	61.26
605.089	61.31
605.418	61.48
605.747	61.43
606.076	61.37
606.405	61.28
606.733	61.42
607.062	61.41
607.391	61.15
607.72	60.85
608.048	60.93
608.377	61.01
608.705	60.9
609.034	60.81
609.362	60.85
609.69	60.94
610.019	60.84
610.347	60.85
610.675	60.71
611.004	60.88
611.332	60.91
611.66	61.1
611.988	60.98
612.316	61.06
612.644	61.07
612.972	61.22
613.3	61.31
613.627	61.27
613.955	61.36
614.283	61.08
614.611	60.92
614.938	60.88
615.266	60.79
615.593	61.04
615.921	61.34
616.248	61.43
616.576	61.34
616.903	61.27
617.23	61.47
617.558	61.37
617.885	61.13
618.212	61.19
618.539	61.26
618.866	61.15
619.193	60.94
619.52	60.95
619.847	60.73
620.174	60.87
620.501	60.7
620.828	60.79
621.155	60.96
621.481	60.64
621.808	60.66
622.135	60.7
622.461	60.84
622.788	61.1
623.114	60.83
623.441	60.53
623.767	60.28
624.093	60.22
624.42	60
624.746	60.52
625.072	60.72
625.398	60.82
625.725	61.16
626.051	61.29
626.377	61.31
626.703	61.16
627.029	61.63
627.354	61.62
627.68	61.29
628.006	61.36
628.332	61.3
628.658	60.99
628.983	60.75
629.309	60.63
629.634	61
629.96	60.84
630.285	60.89
630.611	60.84
630.936	61.06
631.262	61.55
631.587	62.14
631.912	62.41
632.237	62.75
632.562	63.19
632.887	62.83
633.213	62.7
633.538	62.97
633.863	62.44
634.187	61.98
634.512	61.94
634.837	61.97
635.162	61.37
635.487	61.03
635.811	61.52
636.136	61.7
636.461	61.53
636.785	61.79
637.11	62.03
637.434	61.3
637.758	61.11
638.083	60.79
638.407	60.67
638.731	60.89
639.056	60.32
639.38	59.81
639.704	59.85
640.028	59.69
640.352	59.74
640.676	59.15
641	58.64
641.324	58.25
641.648	57.44
641.972	57.54
642.295	57.54
642.619	58.1
642.943	58.11
643.266	58.04
643.59	58.17
643.913	57.03
644.237	56.9
644.56	56.51
644.884	56.99
645.207	57.03
645.53	57.34
645.854	57.38
646.177	57.91
646.5	57.8
646.823	57.96
647.146	58.41
647.469	59.07
647.792	58.72
648.115	58.61
648.438	58.63
648.761	60.97
649.084	62.13
649.406	63.09
649.729	62.56
650.052	62.2
650.374	62.07
650.697	61.82
651.019	61.85
651.342	61.84
651.664	62.01
651.987	62.27
652.309	62.21
652.631	62.42
652.953	62.29
653.276	62.07
653.598	62.15
653.92	62.19
654.242	62.23
654.564	62.3
654.886	62.06
655.208	61.94
655.53	61.94
655.851	62.04
656.173	62.21
656.495	62.26
656.816	61.45
657.138	60.8
657.46	59.5
657.781	59.45
658.103	60.48
658.424	60.64
658.746	60.93
659.067	60.98
659.388	61.04
659.709	60.54
660.031	60.35
660.352	60.46
660.673	60.11
660.994	60
661.315	60.99
661.636	61.81
661.957	61.46
662.278	61.62
662.599	61.7
662.919	61.97
663.24	62.3
663.561	61.46
663.881	61.06
664.202	60.21
664.523	59.23
664.843	59.06
665.164	58.63
665.484	59.13
665.804	59.16
666.125	58.2
666.445	58.72
666.765	58.16
667.085	58.59
667.405	58.92
667.726	59.04
668.046	58.94
668.366	58.1
668.686	57.51
669.005	57.36
669.325	57.26
669.645	55.83
669.965	55.72
670.285	55.61
670.604	55.87
670.924	56.04
671.243	56.76
671.563	56.77
671.882	57.31
672.202	57.03
672.521	57.69
672.841	57.3
673.16	56.99
673.479	56.48
673.798	56
674.117	56.02
674.437	56.09
674.756	56.64
675.075	56.22
675.394	55.34
675.713	55.25
676.031	55.77
676.35	57.27
676.669	58.01
676.988	58.5
677.306	58.3
677.625	59.41
677.944	60.14
678.262	60.27
678.581	60.34
678.899	60.52
679.218	59.81
679.536	60.16
679.854	59.41
680.172	60.31
680.491	59.52
680.809	60.44
681.127	60.9
681.445	60.93
681.763	60.68
682.081	60.3
682.399	60.03
682.717	59.95
683.035	60.44
683.352	61.11
683.67	61.21
683.988	61.37
684.306	60.47
684.623	61.14
684.941	61.51
685.258	60.94
685.576	61.13
685.893	60.82
686.211	60.55
686.528	60.36
686.845	60.15
687.162	59.78
687.48	60.51
687.797	61.45
688.114	60.15
688.431	60.57
688.748	60
689.065	59.71
689.382	60.17
689.699	61.55
690.015	62.36
690.332	62.87
690.649	62.29
690.966	62.62
691.282	62.87
691.599	62.88
691.915	62.68
692.232	62.77
692.548	62.41
692.865	61.89
693.181	62.65
693.497	61.95
693.813	62.63
694.13	62.78
694.446	62.59
694.762	62.89
695.078	62.88
695.394	62.68
695.71	62.77
696.026	63.55
696.342	63.52
696.658	64.65
696.973	65.84
697.289	65.35
697.605	64.12
697.92	63.56
698.236	63.78
698.551	64.2
698.867	63.12
699.182	64.37
699.498	64.7
699.813	65.71
700.128	66.54
700.444	65.93
700.759	66.22
701.074	65.57
701.389	65.81
701.704	65.1
702.019	64.48
702.334	65.17
702.649	65.7
702.964	66.36
703.279	66.22
703.594	66.11
703.908	66.7
704.223	66.29
704.538	64.88
704.852	63.34
705.167	62.92
705.481	63.83
705.796	64.23
706.11	63.81
706.425	63.77
706.739	64.37
707.053	63.44
707.368	62.86
707.682	62.52
707.996	61.39
708.31	60.91
708.624	60.75
708.938	61.72
709.252	61.18
709.566	60.35
709.88	60.12
710.193	58.9
710.507	58.95
710.821	58.98
711.135	57.82
711.448	57.3
711.762	57.11
712.075	58.02
712.389	58.84
712.702	59.6
713.015	59.5
713.329	60.06
713.642	59.71
713.955	60.05
714.269	60.28
714.582	59.57
714.895	58.83
715.208	59.93
715.521	60.47
715.834	60.93
716.147	62.23
716.459	61.11
716.772	60.52
717.085	61.01
717.398	61.96
717.71	62.85
718.023	62.58
718.336	61.6
718.648	60.69
718.961	60.95
719.273	60.76
719.585	61.35
719.898	62.01
720.21	61.96
720.522	62.38
720.834	62.86
721.147	62.02
721.459	62.04
721.771	63.1
722.083	64.1
722.395	65.27
722.707	65.45
723.019	64.46
723.33	63.16
723.642	64.34
723.954	62.98
724.265	64.65
724.577	62.95
724.889	63.53
725.2	62.68
725.512	61.61
725.823	62.48
726.135	62.99
726.446	63.23
726.757	64.28
727.068	66.42
727.38	66.12
727.691	65.84
728.002	65.03
728.313	65.52
728.624	65.43
728.935	64.52
729.246	64.57
729.557	64.3
729.867	63.9
730.178	62.6
730.489	63.37
730.8	64.62
731.11	64.44
731.421	63.26
731.731	63.4
732.042	62.69
732.352	63.16
732.663	62.79
732.973	62.95
733.283	63.24
733.594	63.33
733.904	63.38
734.214	62.98
734.524	62.6
734.834	61.83
735.144	61.02
735.454	60.43
735.764	61.47
736.074	61.13
736.384	61.21
736.694	61.49
737.003	61.26
737.313	60.94
737.623	59.71
737.932	60.2
738.242	59.76
738.551	58.18
738.861	57.24
739.17	58.4
739.479	58.22
739.789	58.54
740.098	58.93
740.407	58.86
740.716	60.39
741.025	61.15
741.334	59.88
741.643	60.92
741.952	62.73
742.261	61.35
742.57	60.96
742.879	60.64
743.188	61.28
743.497	61.4
743.805	60.87
744.114	63.21
744.422	63.96
744.731	63.61
745.04	61.35
745.348	64.25
745.656	64.15
745.965	64.52
746.273	64
746.581	63.84
746.889	61.39
747.198	61.28
747.506	61.29
747.814	62.24
748.122	61.44
748.43	59.07
748.738	58.52
749.046	60.71
749.353	58.65
749.661	57.39
749.969	58.12
750.277	55.67
750.584	56.45
750.892	56.35
751.199	57.7
751.507	58.1
751.814	56.96
752.122	57.03
752.429	58.28
752.736	59.45
753.044	57.85
753.351	58.38
753.658	57.31
753.965	59.43
754.272	60.47
754.579	60.43
754.886	62.28
755.193	61.28
755.5	60.79
755.807	60.39
756.114	60.22
756.42	62.18
756.727	61.38
757.034	61.33
757.34	62.22
757.647	62.42
757.953	61.63
758.26	60.84
758.566	59.28
758.872	57.68
759.179	59.07
759.485	57.7
759.791	58.03
760.097	56.69
760.403	56.46
760.709	55.71
761.015	54.55
761.321	55.03
761.627	53.71
761.933	52.53
762.239	52.34
762.545	48.89
762.851	49.81
763.156	49.17
763.462	49.99
763.767	50.85
764.073	49.22
764.378	47.95
764.684	48.66
764.989	48.56
765.295	50.41
765.6	52.69
765.905	53.26
766.21	53.69
766.515	48.4
766.821	45.75
767.126	45.08
767.431	43.27
767.736	44.61
768.041	41.58
768.345	42.5
768.65	45.98
768.955	44.31
769.26	38.78
769.564	38.52
769.869	40.11
770.174	43.35
770.478	46.24
770.783	39
771.087	44.56
771.391	41.45
771.696	45.49
772	52.93
772.304	57.59
772.608	59.41
772.913	66.57
773.217	56.14
773.521	56.3
773.825	56.13
774.129	66.64
774.433	69.15
774.736	67.72
775.04	64.56
775.344	64.12
775.648	65.84
775.951	60.76
776.255	57.4
776.559	57.59
776.862	63.69
777.166	73.85
777.469	70.43
777.772	65.04
778.076	59.5
778.379	67.92
778.682	57.94
778.985	63.61
779.289	55.3
779.592	53.36
779.895	53.33
780.198	49.98
780.501	33.74
780.804	42.19
781.106	42.5
781.409	44.93
781.712	41.21
782.015	29.46
782.317	31.23
782.62	32.84
782.923	30.19
783.225	23.01
783.527	33.97
783.83	26.55
784.132	32.18
784.435	41.67
784.737	26.63
785.039	30.16
785.341	36.18
785.643	30.92
785.945	22.76
786.248	23.08
786.55	24.22
786.851	24.34
787.153	14.65
787.455	14.36
787.757	19.55
788.059	22.68
788.36	15.53
788.662	16.08
788.964	17.32
789.265	18.72
789.567	36.32
789.868	35.95
790.17	34.39
790.471	25
790.772	29.83
791.074	16.76
791.375	24.41
791.676	19.61
791.977	1.94
792.278	15.72
792.579	4.6
792.88	-9.61
793.181	4.76
793.482	11.37
793.783	1.59
794.083	-9.85
794.384	-9.19
794.685	-13.32
794.986	-19.83
795.286	-52.04
795.587	-24.11
795.887	-25.21
796.188	-16.66
796.488	-22.57
796.788	-25.9
797.089	-35.07
797.389	-35.02
797.689	-45.76
797.989	-48.43
798.289	-54.02
798.589	-37.97
798.889	-44.03
799.189	-40.12
799.489	-23.91
799.789	-39.5
800.089	-43.58
800.389	-45.47
800.688	-44.36
800.988	-43.6
801.288	-26.98
801.587	-26.96
801.887	-35.84
802.186	-44.65
802.486	-51.29
802.785	-52.57
803.085	-90.57
803.384	-87.32
803.683	-115.79
803.982	-107.13
804.281	-141.15
804.58	-130.09
804.879	-295.19
805.178	-331.12
805.477	-169.85
805.776	-126.32
806.075	-170.04
806.374	-106.89
806.673	-155.9
806.971	-229.94
807.27	-1634.07
807.569	-1891.95
807.867	-751.26
808.166	433.96
808.464	333.33
808.763	154.02
809.061	128.97
809.359	115.38
809.658	39.74
809.956	-27.96
810.254	-41.13
810.552	-27.75
810.85	-20.8
811.148	-14.85
811.446	35.81
811.744	56.07
812.042	92.99
812.34	76.33
812.638	86.81
812.935	84.57
813.233	111.46
813.531	186.13
813.828	162
814.126	141.26
814.423	195.03
814.721	236.36
815.018	194.52
815.316	238.8
815.613	250.5
815.91	294.63
816.207	255.44
816.504	205.94
816.802	257.33
817.099	210.82
817.396	418.29
817.693	510.87
817.99	655.45
818.286	458.59
818.583	-667.69
818.88	655.45
819.177	322.75
819.473	306.33
819.77	310.43
820.067	476.62
820.363	2539.73
820.66	-960.66
820.956	546.33
821.252	-4753.85
821.549	1072.99
821.845	1439.67
822.141	-947.31
822.437	-227.44
822.734	-200
823.03	330.18
823.326	-14.39
823.622	33.4
823.918	52.63
824.213	306.76
824.509	301.01
824.805	184.81
825.101	175.62
825.397	149.5
825.692	199.49
825.988	113.55
826.283	157.94
826.579	308.27
826.874	-1675.73
827.17	-4466.67
827.465	643.29
827.76	285.68
828.056	287.28
828.351	513.25
828.646	149.26
828.941	327.16
829.236	307.97
829.531	198.52
829.826	138.54
830.121	172.06
830.416	153.35
830.711	185.95
831.006	187.33
831.3	235.26
831.595	193.42
831.89	161.22
832.184	122.95
832.479	117
832.773	136.76
833.068	114.2
833.362	122.15
833.656	104.99
833.951	82.45
834.245	78.63
834.539	96.78
834.833	95.97
835.127	83.37
835.421	71.25
835.715	81.74
836.009	92.33
836.303	83.16
836.597	74.69
836.891	88.86
837.185	113.47
837.478	92.51
837.772	109.77
838.066	113.05
838.359	123.31
838.653	110.95
838.946	97.89
839.24	108.97
839.533	146.97
839.826	185.13
840.119	153.55
840.413	140.1
840.706	129.38
840.999	121.58
841.292	176.81
841.585	181.19
841.878	138.71
842.171	133.41
842.464	183.02
842.757	169.31
843.049	179.45
843.342	131.26
843.635	117.2
843.927	194.93
844.22	186.42
844.513	238.36
844.805	472.35
845.098	632
845.39	714.82
845.682	681.63
845.975	1255.09
846.267	492.06
846.559	379.1
846.851	312.49
847.143	242.59
847.435	342.11
847.727	373.31
848.019	558.31
848.311	1262.13
848.603	2388.84
848.895	-1599.39
849.186	-448.4
849.478	-25173.91
849.77	1818.24
850.061	2800.86
850.353	-5551.26
850.645	-1110.85
850.936	-965.83
851.227	-92085.71
851.519	-1933.76
851.81	1252.76
852.101	911.58
852.393	2741.94
852.684	-3516.56
852.975	-1022.86
853.266	-366.02
853.557	-328.17
853.848	-173.5
854.139	-101.72
854.43	-125.06
854.72	-177.34
855.011	-256.7
855.302	-297.15
855.593	-329.21
855.883	-423.59
856.174	-282.05
856.464	-899.45
856.755	1062.7
857.045	627.59
857.336	531.3
857.626	-1505.75
857.916	1135.54
858.206	-9800
858.497	-166.29
858.787	-268.46
859.077	-403.96
859.367	-169.32
859.657	-280.11
859.947	-1455.09
860.237	1762.04
860.527	449.62
860.816	325.53
861.106	166.32
861.396	193.66
861.685	333.92
861.975	630.38
862.265	770.17
862.554	465.77
862.844	-1660.11
863.133	-1234.22
863.422	-1353.04
863.712	-532.32
864.001	-196.38
864.29	-183.89
864.579	-203.98
864.868	-301.92
865.157	-283.92
865.446	-320.2
865.735	-546.03
866.024	-432.34
866.313	-221.69
866.602	-382.86
866.891	-322.88
867.179	-172.19
867.468	-175.83
