Data from T2_Reflection__122__20-16-52-114.txt Node

Date: Fri Jun 04 20:16:52 CEST 2021
User: mabdelazizm
Spectrometer: FLMS18565
Trigger mode: 0
Integration Time (sec): 2.000000E0
Scans to average: 1
Electric dark correction enabled: true
Nonlinearity correction enabled: false
Boxcar width: 12
XAxis mode: Wavelengths
Number of Pixels in Spectrum: 2048
>>>>>Begin Spectral Data<<<<<
179.071	-93.42
179.452	-59.95
179.833	-205.16
180.214	-194.23
180.595	-210.19
180.977	-344.87
181.358	-264.05
181.739	-263.13
182.12	-216.58
182.501	-307.93
182.882	-331.04
183.262	-1271.43
183.643	-238.59
184.024	-149.55
184.405	-88.87
184.786	-73.42
185.166	-57.45
185.547	-21.89
185.927	-14.11
186.308	-19.8
186.689	-3.04
187.069	-7.01
187.449	-14.16
187.83	-22.38
188.21	-23.69
188.59	-15.11
188.971	-12.41
189.351	-6.26
189.731	-7.42
190.111	-4.17
190.491	-0.61
190.871	-2.45
191.251	-0.38
191.631	2.94
192.011	7.77
192.391	9.75
192.771	12.54
193.151	12.08
193.531	11.38
193.91	13.15
194.29	13.2
194.67	13.16
195.049	9.29
195.429	9.8
195.808	11.01
196.188	6.65
196.567	7.73
196.946	13.42
197.326	12.36
197.705	11.88
198.084	8.21
198.464	4.27
198.843	6.14
199.222	4.4
199.601	5.19
199.98	3.93
200.359	3.63
200.738	5.93
201.117	4.82
201.496	0.5
201.875	-0.1
202.254	0.31
202.632	-1.78
203.011	-0.43
203.39	-0.53
203.768	-0.3
204.147	-0.98
204.525	-1.31
204.904	-2.78
205.282	-1.39
205.661	-2.93
206.039	-1.95
206.418	-7.01
206.796	-3.21
207.174	-2.46
207.552	-1.25
207.931	-0.58
208.309	-3.34
208.687	-0.97
209.065	-1.83
209.443	-2.76
209.821	-3.27
210.199	-6.25
210.577	-5.78
210.954	-1.05
211.332	-3.04
211.71	-4.32
212.088	-3.2
212.465	-4.65
212.843	-3.86
213.221	-0.53
213.598	-0.23
213.976	-1.66
214.353	-1.99
214.731	-3.13
215.108	-1.96
215.485	-2.74
215.863	-2.31
216.24	-5.11
216.617	-5.1
216.994	-4.73
217.371	-3.82
217.749	-3.04
218.126	-3.81
218.503	-3.24
218.88	-3.58
219.256	-3.52
219.633	-2.3
220.01	-2.12
220.387	-2.34
220.764	-1.99
221.14	-1.08
221.517	-1.05
221.894	-1.06
222.27	-1.62
222.647	-2.71
223.023	-1.92
223.4	-1.76
223.776	-1.47
224.153	-1.76
224.529	-1.44
224.905	-0.73
225.282	-0.3
225.658	-0.17
226.034	-0.91
226.41	-0.58
226.786	-0.81
227.162	-0.54
227.538	-0.44
227.914	-0.69
228.29	-0.84
228.666	-0.96
229.042	-1.11
229.418	-0.96
229.793	-1.36
230.169	-1.31
230.545	-1.58
230.92	-1.77
231.296	-1.7
231.672	-1.51
232.047	-1.42
232.422	-1.67
232.798	-1.38
233.173	-1.28
233.549	-1.07
233.924	-0.93
234.299	-0.99
234.674	-0.88
235.05	-0.89
235.425	-0.73
235.8	-0.71
236.175	-0.61
236.55	-0.59
236.925	-0.46
237.3	-0.27
237.675	-0.16
238.049	-0.12
238.424	-0.06
238.799	-0
239.174	0.17
239.548	0.23
239.923	0.38
240.297	0.41
240.672	0.51
241.046	0.6
241.421	0.64
241.795	0.77
242.17	0.72
242.544	0.74
242.918	0.76
243.293	0.7
243.667	0.64
244.041	0.65
244.415	0.67
244.789	0.74
245.163	0.7
245.537	0.72
245.911	0.72
246.285	0.68
246.659	0.65
247.033	0.69
247.406	0.75
247.78	0.74
248.154	0.65
248.528	0.69
248.901	0.69
249.275	0.69
249.648	0.77
250.022	0.72
250.395	0.66
250.769	0.68
251.142	0.65
251.515	0.69
251.888	0.67
252.262	0.68
252.635	0.72
253.008	0.75
253.381	0.73
253.754	0.75
254.127	0.73
254.5	0.71
254.873	0.68
255.246	0.68
255.619	0.7
255.992	0.74
256.364	0.75
256.737	0.73
257.11	0.75
257.483	0.79
257.855	0.75
258.228	0.78
258.6	0.77
258.973	0.78
259.345	0.84
259.718	0.83
260.09	0.8
260.462	0.8
260.834	0.76
261.207	0.78
261.579	0.78
261.951	0.78
262.323	0.75
262.695	0.8
263.067	0.85
263.439	0.89
263.811	0.92
264.183	0.96
264.555	1
264.927	0.96
265.298	0.9
265.67	0.8
266.042	0.77
266.413	0.78
266.785	0.75
267.156	0.74
267.528	0.7
267.899	0.67
268.271	0.68
268.642	0.59
269.013	0.6
269.385	0.58
269.756	0.56
270.127	0.55
270.498	0.57
270.87	0.54
271.241	0.51
271.612	0.55
271.983	0.51
272.354	0.42
272.724	0.41
273.095	0.39
273.466	0.35
273.837	0.3
274.208	0.33
274.578	0.32
274.949	0.41
275.32	0.47
275.69	0.41
276.061	0.4
276.431	0.35
276.802	0.35
277.172	0.41
277.542	0.37
277.913	0.41
278.283	0.39
278.653	0.44
279.023	0.45
279.394	0.5
279.764	0.46
280.134	0.48
280.504	0.46
280.874	0.46
281.244	0.46
281.614	0.48
281.983	0.41
282.353	0.48
282.723	0.49
283.093	0.48
283.462	0.48
283.832	0.51
284.202	0.48
284.571	0.39
284.941	0.41
285.31	0.47
285.68	0.53
286.049	0.5
286.418	0.45
286.788	0.55
287.157	0.54
287.526	0.54
287.895	0.54
288.264	0.55
288.633	0.5
289.002	0.5
289.371	0.51
289.74	0.5
290.109	0.45
290.478	0.39
290.847	0.39
291.216	0.39
291.585	0.28
291.953	0.21
292.322	0.23
292.691	0.17
293.059	0.12
293.428	0.11
293.796	0.19
294.165	0.18
294.533	0.13
294.901	0.11
295.27	0.15
295.638	0.14
296.006	0.03
296.374	-0.01
296.743	0.01
297.111	-0.01
297.479	-0.04
297.847	0
298.215	0
298.583	-0.04
298.95	-0.03
299.318	-0.02
299.686	0.01
300.054	0.01
300.422	0.03
300.789	0.02
301.157	0.06
301.525	0.07
301.892	0.11
302.26	0.07
302.627	0.12
302.994	0.07
303.362	0.13
303.729	0.13
304.097	0.12
304.464	0.08
304.831	0.1
305.198	0.12
305.565	0.15
305.932	0.13
306.299	0.11
306.666	0.14
307.033	0.11
307.4	0.12
307.767	0.09
308.134	0.08
308.501	0.1
308.867	0.13
309.234	0.14
309.601	0.16
309.967	0.2
310.334	0.22
310.701	0.16
311.067	0.13
311.433	0.21
311.8	0.13
312.166	0.14
312.533	0.03
312.899	0.03
313.265	0.09
313.631	0.15
313.997	0.15
314.363	0.15
314.729	0.14
315.096	0.1
315.461	0.05
315.827	0.03
316.193	0.05
316.559	0.05
316.925	0.09
317.291	0.12
317.656	0.13
318.022	0.1
318.388	0.13
318.753	0.11
319.119	0.12
319.484	0.15
319.85	0.18
320.215	0.2
320.581	0.2
320.946	0.21
321.311	0.21
321.676	0.25
322.042	0.19
322.407	0.11
322.772	0.11
323.137	0.07
323.502	0.08
323.867	0.07
324.232	0.04
324.597	0.07
324.962	0.12
325.327	0.12
325.691	0.1
326.056	0.13
326.421	0.14
326.785	0.12
327.15	0.07
327.514	0.02
327.879	0.02
328.243	0.05
328.608	0.04
328.972	0.07
329.337	0.05
329.701	0.07
330.065	0.08
330.429	0.07
330.794	0.1
331.158	0.16
331.522	0.19
331.886	0.12
332.25	0.14
332.614	0.12
332.978	0.13
333.342	0.19
333.705	0.22
334.069	0.15
334.433	0.12
334.797	0.1
335.16	0.03
335.524	0.02
335.887	0.05
336.251	0.05
336.614	0.06
336.978	0.09
337.341	0.05
337.705	-0.01
338.068	0.05
338.431	0.06
338.794	0.02
339.158	0.01
339.521	0.01
339.884	-0.04
340.247	-0.09
340.61	-0.1
340.973	-0.04
341.336	-0.06
341.699	-0.1
342.062	-0.11
342.424	-0.13
342.787	-0.16
343.15	-0.18
343.512	-0.18
343.875	-0.19
344.238	-0.12
344.6	-0.18
344.963	-0.21
345.325	-0.23
345.688	-0.29
346.05	-0.31
346.412	-0.28
346.775	-0.28
347.137	-0.39
347.499	-0.41
347.861	-0.38
348.223	-0.32
348.585	-0.43
348.947	-0.42
349.309	-0.42
349.671	-0.4
350.033	-0.47
350.395	-0.47
350.757	-0.48
351.118	-0.55
351.48	-0.55
351.842	-0.57
352.203	-0.54
352.565	-0.56
352.927	-0.54
353.288	-0.63
353.65	-0.63
354.011	-0.63
354.372	-0.58
354.734	-0.51
355.095	-0.56
355.456	-0.6
355.817	-0.58
356.179	-0.57
356.54	-0.56
356.901	-0.63
357.262	-0.72
357.623	-0.65
357.984	-0.57
358.345	-0.49
358.705	-0.49
359.066	-0.49
359.427	-0.51
359.788	-0.49
360.148	-0.43
360.509	-0.39
360.87	-0.32
361.23	-0.36
361.591	-0.33
361.951	-0.35
362.312	-0.36
362.672	-0.35
363.032	-0.39
363.393	-0.36
363.753	-0.4
364.113	-0.41
364.473	-0.4
364.833	-0.42
365.193	-0.42
365.553	-0.41
365.913	-0.39
366.273	-0.38
366.633	-0.35
366.993	-0.45
367.353	-0.6
367.713	-0.62
368.072	-0.65
368.432	-0.56
368.792	-0.6
369.151	-0.62
369.511	-0.64
369.87	-0.73
370.23	-0.66
370.589	-0.63
370.949	-0.64
371.308	-0.61
371.667	-0.57
372.027	-0.55
372.386	-0.62
372.745	-0.59
373.104	-0.54
373.463	-0.52
373.822	-0.52
374.181	-0.54
374.54	-0.51
374.899	-0.5
375.258	-0.48
375.617	-0.48
375.975	-0.39
376.334	-0.28
376.693	-0.22
377.052	-0.19
377.41	-0.24
377.769	-0.2
378.127	-0.18
378.486	-0.23
378.844	-0.19
379.202	-0.22
379.561	-0.32
379.919	-0.32
380.277	-0.31
380.636	-0.31
380.994	-0.32
381.352	-0.33
381.71	-0.35
382.068	-0.33
382.426	-0.37
382.784	-0.32
383.142	-0.33
383.5	-0.36
383.857	-0.33
384.215	-0.34
384.573	-0.4
384.931	-0.43
385.288	-0.49
385.646	-0.54
386.003	-0.5
386.361	-0.44
386.718	-0.42
387.076	-0.44
387.433	-0.41
387.791	-0.39
388.148	-0.43
388.505	-0.39
388.862	-0.35
389.22	-0.3
389.577	-0.26
389.934	-0.31
390.291	-0.28
390.648	-0.33
391.005	-0.38
391.362	-0.4
391.718	-0.4
392.075	-0.48
392.432	-0.45
392.789	-0.51
393.145	-0.53
393.502	-0.5
393.859	-0.53
394.215	-0.54
394.572	-0.52
394.928	-0.55
395.285	-0.69
395.641	-0.73
395.997	-0.71
396.354	-0.73
396.71	-0.67
397.066	-0.61
397.422	-0.56
397.778	-0.57
398.134	-0.63
398.491	-0.73
398.846	-0.71
399.202	-0.72
399.558	-0.76
399.914	-0.71
400.27	-0.71
400.626	-0.78
400.981	-0.72
401.337	-0.75
401.693	-0.74
402.048	-0.75
402.404	-0.72
402.759	-0.69
403.115	-0.63
403.47	-0.62
403.826	-0.67
404.181	-0.61
404.536	-0.66
404.892	-0.69
405.247	-0.73
405.602	-0.88
405.957	-0.88
406.312	-0.91
406.667	-0.87
407.022	-0.85
407.377	-0.75
407.732	-0.68
408.087	-0.71
408.442	-0.63
408.796	-0.69
409.151	-0.62
409.506	-0.53
409.86	-0.53
410.215	-0.53
410.57	-0.53
410.924	-0.46
411.279	-0.48
411.633	-0.54
411.987	-0.56
412.342	-0.56
412.696	-0.49
413.05	-0.41
413.404	-0.28
413.758	-0.23
414.113	-0.14
414.467	-0.04
414.821	-0.1
415.175	-0.08
415.529	-0.18
415.882	-0.19
416.236	-0.21
416.59	-0.23
416.944	-0.16
417.298	-0.09
417.651	-0.07
418.005	-0.02
418.358	-0.08
418.712	-0.03
419.065	-0.08
419.419	-0.07
419.772	-0.14
420.126	-0.06
420.479	0.04
420.832	0
421.185	0.04
421.539	-0.05
421.892	-0.09
422.245	-0.19
422.598	-0.16
422.951	-0.1
423.304	-0.18
423.657	-0.16
424.01	-0.23
424.363	-0.22
424.715	-0.14
425.068	-0.19
425.421	-0.21
425.773	-0.23
426.126	-0.18
426.479	-0.21
426.831	-0.28
427.184	-0.3
427.536	-0.31
427.889	-0.25
428.241	-0.19
428.593	-0.14
428.945	-0.15
429.298	-0.13
429.65	-0.1
430.002	-0.13
430.354	0.01
430.706	0.04
431.058	0.06
431.41	0.03
431.762	-0.08
432.114	-0.01
432.466	0.02
432.817	0.09
433.169	0.16
433.521	0.07
433.872	0.08
434.224	0.04
434.576	0.06
434.927	-0.07
435.279	-0.05
435.63	0
435.981	0.05
436.333	0.08
436.684	0.07
437.035	0
437.387	0.02
437.738	0
438.089	-0.02
438.44	-0.03
438.791	-0.12
439.142	-0.19
439.493	-0.2
439.844	-0.11
440.195	-0.11
440.545	-0.05
440.896	-0.02
441.247	-0.05
441.598	-0.1
441.948	-0.15
442.299	-0.13
442.649	-0.07
443	-0.03
443.35	-0.02
443.701	0.01
444.051	0.01
444.401	0
444.752	-0.04
445.102	-0.16
445.452	-0.18
445.802	-0.17
446.152	-0.23
446.502	-0.26
446.852	-0.38
447.202	-0.36
447.552	-0.34
447.902	-0.35
448.252	-0.46
448.602	0.01
448.952	0.1
449.301	0.1
449.651	0.06
450.001	0.1
450.35	0.16
450.7	0.24
451.049	0.26
451.399	0.3
451.748	0.3
452.097	0.36
452.447	0.31
452.796	0.36
453.145	0.36
453.494	0.38
453.843	0.44
454.193	0.55
454.542	0.55
454.891	0.65
455.239	0.63
455.588	0.8
455.937	0.8
456.286	0.88
456.635	0.85
456.984	0.89
457.332	0.41
457.681	0.39
458.03	0.4
458.378	0.35
458.727	0.36
459.075	0.35
459.423	0.47
459.772	0.46
460.12	0.41
460.468	0.41
460.817	0.39
461.165	0.47
461.513	0.44
461.861	0.43
462.209	0.47
462.557	0.61
462.905	0.61
463.253	0.61
463.601	0.68
463.949	0.69
464.297	0.6
464.644	0.62
464.992	0.54
465.34	0.6
465.687	0.7
466.035	0.58
466.383	0.54
466.73	0.51
467.078	0.56
467.425	0.58
467.772	0.61
468.12	0.47
468.467	0.49
468.814	0.43
469.161	0.37
469.508	0.41
469.856	0.37
470.203	0.41
470.55	0.41
470.897	0.46
471.243	0.31
471.59	0.33
471.937	0.35
472.284	0.33
472.631	0.33
472.977	0.39
473.324	0.41
473.671	0.45
474.017	0.4
474.364	0.35
474.71	0.35
475.057	0.34
475.403	0.35
475.749	0.36
476.096	0.32
476.442	0.34
476.788	0.38
477.134	0.37
477.48	0.36
477.826	0.41
478.172	0.31
478.518	0.4
478.864	0.42
479.21	0.48
479.556	0.44
479.902	0.51
480.248	0.52
480.593	0.52
480.939	0.46
481.285	0.51
481.63	0.48
481.976	0.53
482.321	0.51
482.667	0.59
483.012	0.61
483.357	0.7
483.703	0.78
484.048	0.92
484.393	1.02
484.738	1.13
485.084	1.16
485.429	1.25
485.774	1.32
486.119	1.46
486.464	1.64
486.808	1.77
487.153	1.83
487.498	1.91
487.843	1.98
488.188	2.18
488.532	2.32
488.877	2.49
489.222	2.75
489.566	3.04
489.911	3.33
490.255	3.64
490.6	3.9
490.944	4.23
491.288	4.62
491.633	5.06
491.977	5.39
492.321	5.8
492.665	6.12
493.009	6.48
493.353	6.9
493.697	7.41
494.041	7.83
494.385	8.3
494.729	8.79
495.073	9.27
495.417	9.85
495.76	10.43
496.104	11.02
496.448	11.68
496.791	12.32
497.135	13.05
497.479	13.75
497.822	14.39
498.165	15.08
498.509	15.74
498.852	16.44
499.196	17.25
499.539	17.97
499.882	18.62
500.225	19.32
500.568	20.12
500.911	20.66
501.254	21.41
501.597	22.09
501.94	22.8
502.283	23.37
502.626	24.18
502.969	24.85
503.312	25.51
503.654	26.31
503.997	26.98
504.34	27.71
504.682	28.46
505.025	29.05
505.367	29.75
505.71	30.23
506.052	30.86
506.395	31.52
506.737	32.15
507.079	32.85
507.421	33.5
507.764	34.06
508.106	34.72
508.448	35.32
508.79	35.84
509.132	36.26
509.474	36.98
509.816	37.43
510.158	38.06
510.499	38.58
510.841	39.17
511.183	39.55
511.525	40.09
511.866	40.68
512.208	41.02
512.549	41.48
512.891	41.99
513.232	42.51
513.574	43.05
513.915	43.33
514.256	43.93
514.598	44.4
514.939	44.83
515.28	45.29
515.621	45.71
515.962	46.12
516.303	46.54
516.644	46.9
516.985	47.33
517.326	47.75
517.667	48.26
518.008	48.55
518.349	48.99
518.69	49.34
519.03	49.74
519.371	50.2
519.712	50.52
520.052	50.92
520.393	51.01
520.733	51.35
521.074	51.71
521.414	52.07
521.754	52.28
522.095	52.61
522.435	53.04
522.775	53.4
523.115	53.68
523.455	53.81
523.795	53.97
524.135	54.14
524.475	54.4
524.815	54.6
525.155	54.94
525.495	55.05
525.835	55.3
526.175	55.42
526.514	55.63
526.854	55.82
527.194	56.03
527.533	56.14
527.873	56.2
528.212	56.49
528.552	56.67
528.891	57.04
529.23	57.27
529.57	57.48
529.909	57.64
530.248	57.66
530.587	57.8
530.927	57.99
531.266	58.07
531.605	58.12
531.944	58.4
532.283	58.54
532.621	58.63
532.96	58.86
533.299	58.93
533.638	59.03
533.977	59.27
534.315	59.31
534.654	59.37
534.992	59.52
535.331	59.62
535.67	59.76
536.008	59.93
536.346	60.05
536.685	59.95
537.023	59.9
537.361	60.08
537.7	60.15
538.038	60.13
538.376	60.03
538.714	60.37
539.052	60.45
539.39	60.39
539.728	60.36
540.066	60.44
540.404	60.55
540.741	60.7
541.079	60.78
541.417	60.55
541.755	60.59
542.092	60.44
542.43	60.29
542.767	60.34
543.105	60.33
543.442	60.37
543.78	60.47
544.117	60.41
544.454	60.51
544.792	60.57
545.129	60.7
545.466	60.88
545.803	60.97
546.14	61.01
546.477	60.94
546.814	61.11
547.151	60.83
547.488	60.89
547.825	61.02
548.162	61.08
548.499	61.2
548.835	61.32
549.172	61.32
549.509	61.36
549.845	61.63
550.182	61.59
550.518	61.7
550.855	61.85
551.191	61.89
551.528	61.96
551.864	62
552.2	61.91
552.537	62.03
552.873	61.97
553.209	62.13
553.545	62.14
553.881	62.06
554.217	61.82
554.553	61.93
554.889	62.13
555.225	62.06
555.561	62.24
555.896	62.27
556.232	62.3
556.568	62.36
556.903	62.25
557.239	62.14
557.575	62.2
557.91	62.25
558.245	62.32
558.581	62.52
558.916	62.62
559.252	62.78
559.587	62.87
559.922	62.9
560.257	63.02
560.592	63.22
560.928	63.32
561.263	63.47
561.598	63.51
561.933	63.7
562.267	63.96
562.602	64.22
562.937	64.35
563.272	64.43
563.607	64.56
563.941	64.9
564.276	64.96
564.611	64.98
564.945	65.06
565.28	65.36
565.614	65.25
565.949	65.29
566.283	65.22
566.617	65.22
566.951	65.43
567.286	65.57
567.62	65.58
567.954	65.65
568.288	65.69
568.622	65.74
568.956	65.74
569.29	65.76
569.624	65.63
569.958	65.58
570.292	65.54
570.626	65.53
570.959	65.54
571.293	65.5
571.627	65.5
571.96	65.48
572.294	65.44
572.627	65.36
572.961	65.5
573.294	65.5
573.627	65.54
573.961	65.72
574.294	65.8
574.627	66.01
574.961	66.12
575.294	66.04
575.627	66.16
575.96	66.12
576.293	66.02
576.626	66.01
576.959	66.04
577.292	66.08
577.624	66.06
577.957	66.18
578.29	66.21
578.623	66.35
578.955	66.37
579.288	66.36
579.62	66.31
579.953	66.29
580.285	66.35
580.618	66.37
580.95	66.48
581.282	66.49
581.615	66.59
581.947	66.51
582.279	66.52
582.611	66.48
582.943	66.35
583.275	66.22
583.607	66.37
583.939	66.11
584.271	66.12
584.603	66.27
584.935	66.48
585.267	66.4
585.598	66.38
585.93	66.47
586.262	66.5
586.593	66.6
586.925	66.49
587.256	66.41
587.588	66.31
587.919	66.39
588.25	66.57
588.582	66.6
588.913	66.65
589.244	66.69
589.575	66.68
589.907	66.68
590.238	66.49
590.569	66.59
590.9	66.61
591.231	66.68
591.562	66.78
591.892	66.73
592.223	66.92
592.554	67.02
592.885	66.94
593.215	66.82
593.546	66.69
593.877	66.57
594.207	66.45
594.538	66.39
594.868	66.25
595.198	66.27
595.529	66.22
595.859	66.11
596.189	66.23
596.52	66.2
596.85	66.19
597.18	66.11
597.51	66.1
597.84	66.05
598.17	66.02
598.5	66.17
598.83	65.97
599.16	66.21
599.489	66.25
599.819	66.18
600.149	65.99
600.479	65.96
600.808	65.91
601.138	65.78
601.467	65.75
601.797	65.84
602.126	65.86
602.456	65.99
602.785	66.03
603.114	66.05
603.443	66.07
603.773	66.05
604.102	66.26
604.431	66.13
604.76	65.96
605.089	65.88
605.418	65.8
605.747	65.68
606.076	65.58
606.405	65.49
606.733	65.59
607.062	65.78
607.391	65.41
607.72	65.28
608.048	65.29
608.377	65.33
608.705	65.26
609.034	65.13
609.362	65.36
609.69	65.38
610.019	65.33
610.347	65.49
610.675	65.32
611.004	65.28
611.332	65.28
611.66	65.34
611.988	65.32
612.316	65.43
612.644	65.42
612.972	65.54
613.3	65.51
613.627	65.51
613.955	65.76
614.283	65.71
614.611	65.63
614.938	65.54
615.266	65.35
615.593	65.4
615.921	65.35
616.248	65.46
616.576	65.44
616.903	65.46
617.23	65.35
617.558	65.12
617.885	65.12
618.212	65.23
618.539	65.11
618.866	64.94
619.193	64.89
619.52	64.88
619.847	64.81
620.174	65.05
620.501	64.82
620.828	64.74
621.155	64.83
621.481	64.74
621.808	64.87
622.135	64.91
622.461	64.85
622.788	64.78
623.114	64.38
623.441	63.88
623.767	63.95
624.093	64.25
624.42	63.86
624.746	64.01
625.072	63.99
625.398	64.46
625.725	64.62
626.051	64.45
626.377	64.34
626.703	64.06
627.029	64.49
627.354	64.59
627.68	64.29
628.006	64.14
628.332	64.05
628.658	64.26
628.983	64.16
629.309	64.06
629.634	64.27
629.96	63.89
630.285	63.32
630.611	63.05
630.936	63.5
631.262	64.35
631.587	64.98
631.912	65.12
632.237	64.95
632.562	65.36
632.887	65.04
633.213	65.19
633.538	65.02
633.863	65.04
634.187	64.95
634.512	64.83
634.837	64.96
635.162	64.1
635.487	63.55
635.811	64.27
636.136	64.72
636.461	64.38
636.785	64.03
637.11	64.41
637.434	64.38
637.758	64.21
638.083	64.06
638.407	64.21
638.731	64.51
639.056	64.18
639.38	63.67
639.704	63.97
640.028	63.82
640.352	63.95
640.676	64.07
641	63.92
641.324	63.49
641.648	63.22
641.972	63.35
642.295	63.36
642.619	63.61
642.943	63.28
643.266	63.6
643.59	63.97
643.913	63.51
644.237	63.33
644.56	63.14
644.884	63.35
645.207	62.98
645.53	62.83
645.854	62.91
646.177	63.17
646.5	63.43
646.823	63.67
647.146	64.14
647.469	64.16
647.792	63.86
648.115	63.86
648.438	64.33
648.761	66.61
649.084	67.33
649.406	67.34
649.729	66.21
650.052	65.68
650.374	65.49
650.697	65.38
651.019	65.49
651.342	65.67
651.664	65.65
651.987	65.63
652.309	65.58
652.631	65.69
652.953	65.7
653.276	65.6
653.598	65.56
653.92	65.65
654.242	65.81
654.564	65.69
654.886	65.51
655.208	65.35
655.53	65.42
655.851	65.45
656.173	65.5
656.495	65.41
656.816	64.26
657.138	63.66
657.46	62.5
657.781	62.85
658.103	63.57
658.424	63.57
658.746	63.26
659.067	63.3
659.388	62.8
659.709	62.76
660.031	62.33
660.352	61.76
660.673	60.72
660.994	61.14
661.315	62.18
661.636	62.03
661.957	61.54
662.278	62.31
662.599	62.32
662.919	63.02
663.24	62.69
663.561	62.2
663.881	61.67
664.202	60.88
664.523	59.36
664.843	59.6
665.164	58.69
665.484	58.81
665.804	58.78
666.125	57.79
666.445	58.4
666.765	58.32
667.085	58.15
667.405	58.12
667.726	58.45
668.046	58.89
668.366	58.44
668.686	59.28
669.005	57.67
669.325	56.96
669.645	56.77
669.965	56.77
670.285	56.02
670.604	55.99
670.924	55.86
671.243	56.43
671.563	56.67
671.882	57.11
672.202	57.35
672.521	58.13
672.841	57.29
673.16	57.18
673.479	57.6
673.798	57.38
674.117	57.54
674.437	57.58
674.756	57.67
675.075	58.18
675.394	58.09
675.713	57.8
676.031	58.27
676.35	59.1
676.669	59.04
676.988	60.74
677.306	60.86
677.625	61.45
677.944	61.42
678.262	61.28
678.581	61.52
678.899	61.4
679.218	60.96
679.536	60.64
679.854	60.46
680.172	60.19
680.491	59.56
680.809	60.21
681.127	60.03
681.445	60.25
681.763	60.16
682.081	60.11
682.399	60.42
682.717	60.8
683.035	60.52
683.352	60.25
683.67	59.6
683.988	59.27
684.306	59.29
684.623	59.89
684.941	59.59
685.258	59.64
685.576	60.23
685.893	60.3
686.211	60.12
686.528	59.79
686.845	60.27
687.162	60.25
687.48	60.81
687.797	60.78
688.114	60.98
688.431	61.35
688.748	60.89
689.065	60.85
689.382	60.7
689.699	61.33
690.015	61.83
690.332	61.62
690.649	61.92
690.966	62.36
691.282	63.46
691.599	64.21
691.915	63.92
692.232	63.56
692.548	63.27
692.865	63.01
693.181	63.6
693.497	62.66
693.813	63.3
694.13	64.32
694.446	65.17
694.762	64.77
695.078	65.04
695.394	64.99
695.71	65.46
696.026	65.32
696.342	65.61
696.658	66.7
696.973	67.83
697.289	67.63
697.605	66.62
697.92	67.22
698.236	66.8
698.551	66.72
698.867	66.48
699.182	66.64
699.498	66.69
699.813	67.98
700.128	68.7
700.444	67.88
700.759	67.69
701.074	66.07
701.389	66.05
701.704	64.88
702.019	63.76
702.334	64.92
702.649	64.85
702.964	65.12
703.279	65.21
703.594	64.83
703.908	64.99
704.223	64.93
704.538	64.43
704.852	62.68
705.167	61.89
705.481	62.7
705.796	62.66
706.11	62.02
706.425	62.2
706.739	61.81
707.053	61.1
707.368	61.71
707.682	60.69
707.996	60.92
708.31	60.98
708.624	61.48
708.938	62.69
709.252	63.8
709.566	63.98
709.88	64.19
710.193	61.83
710.507	61.75
710.821	62.32
711.135	61.76
711.448	61.47
711.762	61.61
712.075	62.02
712.389	62.23
712.702	63.25
713.015	63.74
713.329	63.41
713.642	63.14
713.955	64.45
714.269	65
714.582	65.86
714.895	64.94
715.208	64.43
715.521	65.04
715.834	64.74
716.147	65.05
716.459	63.61
716.772	62.56
717.085	60.93
717.398	60.38
717.71	59.57
718.023	59.72
718.336	60.68
718.648	59.94
718.961	59.28
719.273	59.09
719.585	59.27
719.898	59.22
720.21	58.6
720.522	59.18
720.834	59.55
721.147	59.67
721.459	59.06
721.771	58.92
722.083	58.58
722.395	58.61
722.707	59.2
723.019	57.82
723.33	56.94
723.642	57.81
723.954	57.37
724.265	58.14
724.577	58.37
724.889	58.37
725.2	59.94
725.512	60.87
725.823	60.75
726.135	60.12
726.446	60.04
726.757	61.03
727.068	61.85
727.38	61.77
727.691	60.65
728.002	60.02
728.313	60.01
728.624	60.3
728.935	60.24
729.246	60.71
729.557	61.25
729.867	60.95
730.178	60.2
730.489	60.5
730.8	62.14
731.11	63.68
731.421	62.1
731.731	61.64
732.042	61.86
732.352	61.73
732.663	62.22
732.973	62.18
733.283	61.64
733.594	62.4
733.904	62.75
734.214	62.98
734.524	63.05
734.834	63.36
735.144	62.63
735.454	64.26
735.764	65.13
736.074	65.04
736.384	65.01
736.694	64.79
737.003	65.07
737.313	64.3
737.623	64.37
737.932	64.87
738.242	65.42
738.551	64.1
738.861	62.8
739.17	63.24
739.479	64.32
739.789	64.17
740.098	64.6
740.407	64.51
740.716	65.54
741.025	66.54
741.334	65.52
741.643	64.82
741.952	64.74
742.261	64.34
742.57	62.72
742.879	63.13
743.188	61.24
743.497	61.66
743.805	62.4
744.114	63.38
744.422	63.97
744.731	63.23
745.04	59.75
745.348	61.24
745.656	60.86
745.965	60.39
746.273	61.89
746.581	62.86
746.889	62.49
747.198	63.31
747.506	64.16
747.814	64.81
748.122	63.46
748.43	60.13
748.738	58.13
749.046	59.7
749.353	60
749.661	59.28
749.969	57.78
750.277	57.07
750.584	58.09
750.892	57.57
751.199	59.47
751.507	59.13
751.814	59.3
752.122	60.4
752.429	61.06
752.736	64.52
753.044	61.27
753.351	63.03
753.658	62.56
753.965	63.92
754.272	64.04
754.579	64.33
754.886	63.21
755.193	62.97
755.5	62.44
755.807	63.2
756.114	63.29
756.42	64.43
756.727	63.4
757.034	63.14
757.34	62.33
757.647	63.04
757.953	61.49
758.26	60.31
758.566	61.04
758.872	58.45
759.179	59.39
759.485	58.29
759.791	55.15
760.097	53.62
760.403	53.62
760.709	54.34
761.015	54.28
761.321	56
761.627	54.07
761.933	51.7
762.239	53.03
762.545	51.73
762.851	50.45
763.156	49.05
763.462	48.51
763.767	46.04
764.073	46.49
764.378	46.66
764.684	47.3
764.989	48.17
765.295	50.49
765.6	53.49
765.905	54.65
766.21	51.27
766.515	50.91
766.821	47.5
767.126	45.83
767.431	51.96
767.736	55.58
768.041	52.26
768.345	50.28
768.65	48.53
768.955	40.22
769.26	36.15
769.564	39.53
769.869	36.68
770.174	38.73
770.478	45.99
770.783	40.49
771.087	38.14
771.391	45.06
771.696	46.93
772	53.52
772.304	60.32
772.608	61.52
772.913	65.82
773.217	64.45
773.521	61.44
773.825	65.48
774.129	75
774.433	77.5
774.736	75.95
775.04	68.1
775.344	56.23
775.648	58.33
775.951	59.6
776.255	58.51
776.559	64.19
776.862	66.07
777.166	67.85
777.469	68.34
777.772	64.15
778.076	60.44
778.379	64.98
778.682	62.12
778.985	61.37
779.289	54.64
779.592	49.93
779.895	40.32
780.198	40.25
780.501	32.37
780.804	34.16
781.106	32.56
781.409	29.06
781.712	22.18
782.015	12.71
782.317	12.42
782.62	10.86
782.923	5.87
783.225	2.98
783.527	12.44
783.83	9.35
784.132	6.98
784.435	6.5
784.737	2.8
785.039	4.82
785.341	11.83
785.643	-1.67
785.945	1.33
786.248	6.97
786.55	14.39
786.851	18.55
787.153	10.55
787.455	9.86
787.757	14.54
788.059	3.1
788.36	-2.13
788.662	9.49
788.964	20.3
789.265	14.8
789.567	16.84
789.868	25.9
790.17	25.78
790.471	29.77
790.772	18.11
791.074	5.02
791.375	-1.87
791.676	4.42
791.977	5.79
792.278	1.47
792.579	2.4
792.88	-8.73
793.181	8.6
793.482	-6.07
793.783	-12.97
794.083	-33.18
794.384	-31.35
794.685	-33.29
794.986	-32.34
795.286	-69.9
795.587	-44.24
795.887	-40.87
796.188	-32.22
796.488	-43.03
796.788	-27.13
797.089	-19.23
797.389	-21.94
797.689	-19.21
797.989	-37.04
798.289	-40.21
798.589	-26.54
798.889	-42.83
799.189	-45.89
799.489	-31.42
799.789	-29.06
800.089	-42.72
800.389	-32.86
800.688	-49.35
800.988	-33.42
801.288	-27.74
801.587	-28.06
801.887	-49.33
802.186	-52.7
802.486	-34.91
802.785	-27.43
803.085	-42.75
803.384	-48.55
803.683	-87.01
803.982	-93.92
804.281	-160.62
804.58	-160.47
804.879	-374.72
805.178	-520.38
805.477	-242.78
805.776	-190.85
806.075	-284.17
806.374	-184.82
806.673	-212.23
806.971	-398.01
807.27	-2722.22
807.569	-3874.71
807.867	-2805.88
808.166	927.92
808.464	887.21
808.763	389
809.061	232.03
809.359	227.35
809.658	129.75
809.956	106.78
810.254	60.15
810.552	59.59
810.85	52.86
811.148	83.53
811.446	86.3
811.744	77.09
812.042	88.28
812.34	94.63
812.638	74.02
812.935	42.09
813.233	57.42
813.531	101.18
813.828	91.82
814.126	105
814.423	145.73
814.721	128.97
815.018	98.87
815.316	143.68
815.613	192.13
815.91	240.82
816.207	197.58
816.504	187.29
816.802	283.91
817.099	247.5
817.396	377.09
817.693	577.05
817.99	816.44
818.286	590.73
818.583	-733.85
818.88	746.73
819.177	438.16
819.473	554.61
819.77	512.68
820.067	1350.75
820.363	4749.32
820.66	-1815.85
820.956	944.09
821.252	-6879.49
821.549	1748.18
821.845	1939.67
822.141	-1568.26
822.437	-410.81
822.734	-610.61
823.03	1473.96
823.326	316.45
823.622	550.32
823.918	4538.6
824.213	1023.13
824.509	1064.98
824.805	820.8
825.101	487.01
825.397	347.03
825.692	594.47
825.988	253.7
826.283	399.36
826.579	808.27
826.874	-4531.07
827.17	-11966.67
827.465	1173.41
827.76	600.57
828.056	594.98
828.351	2009.24
828.646	551.72
828.941	726.25
829.236	720.45
829.531	480.93
829.826	326.04
830.121	366.09
830.416	429.19
830.711	340.53
831.006	296.17
831.3	292.9
831.595	208.94
831.89	163.35
832.184	127.79
832.479	109.42
832.773	128.17
833.068	122.91
833.362	110.82
833.656	96.19
833.951	79.43
834.245	81.39
834.539	106.81
834.833	102.69
835.127	93.64
835.421	92.6
835.715	80.54
836.009	80.1
836.303	75.01
836.597	63.66
836.891	64.84
837.185	83.05
837.478	80.82
837.772	81.09
838.066	99.65
838.359	117.85
838.653	121.32
838.946	131.51
839.24	162.12
839.533	159.04
839.826	220.05
840.119	226.68
840.413	217.02
840.706	297.77
840.999	213.09
841.292	303.83
841.585	249.13
841.878	169.45
842.171	197.85
842.464	299.02
842.757	277.68
843.049	270.58
843.342	234.33
843.635	237.3
843.927	287.45
844.22	330.75
844.513	405.72
844.805	737.28
845.098	1000.24
845.39	1079.29
845.682	1011.11
845.975	1652.45
846.267	604.67
846.559	469.92
846.851	413.77
847.143	323.33
847.435	382.88
847.727	402.38
848.019	556.44
848.311	1344.9
848.603	2504.29
848.895	-1725.69
849.186	-474.43
849.478	-23213.04
849.77	1690.88
850.061	2559.23
850.353	-5185.71
850.645	-797.83
850.936	-696.76
851.227	-78328.57
851.519	-1490.35
851.81	931.49
852.101	701.8
852.393	2172.81
852.684	-2603.31
852.975	-793.63
853.266	-352.7
853.557	-257.34
853.848	-120.33
854.139	-69.07
854.43	-93.44
854.72	-151.93
855.011	-203.21
855.302	-110.41
855.593	-83.31
855.883	-115.25
856.174	-66.82
856.464	-373.22
856.755	905.41
857.045	423.08
857.336	397.51
857.626	-472.41
857.916	498.35
858.206	-3178.26
858.497	79.93
858.787	36.29
859.077	-69.23
859.367	34.06
859.657	95.52
859.947	328.74
860.237	-318.98
860.527	-29.62
860.816	4.84
861.106	12.05
861.396	7.8
861.685	-42.98
861.975	1.99
862.265	-24.69
862.554	104.56
862.844	-460.66
863.133	-119.77
863.422	-431.98
863.712	-256.81
864.001	-104.75
864.29	-102.84
864.579	-118.65
864.868	-222.16
865.157	-242.05
865.446	-338.42
865.735	-643.44
866.024	-521.12
866.313	-265.59
866.602	-491.43
866.891	-532
867.179	-324.95
867.468	-296.79
