Data from T2_Reflection__56__19-27-12-210.txt Node

Date: Fri Jun 04 19:27:12 CEST 2021
User: mabdelazizm
Spectrometer: FLMS18565
Trigger mode: 0
Integration Time (sec): 2.000000E0
Scans to average: 1
Electric dark correction enabled: true
Nonlinearity correction enabled: false
Boxcar width: 12
XAxis mode: Wavelengths
Number of Pixels in Spectrum: 2048
>>>>>Begin Spectral Data<<<<<
179.071	-76.97
179.452	-77.37
179.833	-250.06
180.214	-269.23
180.595	-193.44
180.977	-318.25
181.358	-185.51
181.739	-156.98
182.12	-119.72
182.501	-184.38
182.882	-201.05
183.262	-791.43
183.643	-136.24
184.024	-98.91
184.405	-55.39
184.786	-30.15
185.166	-20.97
185.547	4.99
185.927	20.38
186.308	18.79
186.689	24.57
187.069	10.73
187.449	-0.62
187.83	-4.26
188.21	-8.68
188.59	-0.95
188.971	4.99
189.351	9.61
189.731	8.04
190.111	3.45
190.491	-0.25
190.871	-5.83
191.251	-5.23
191.631	-3.98
192.011	-1.77
192.391	-2.58
192.771	-1.28
193.151	-2.84
193.531	-1.85
193.91	-1.34
194.29	-2.4
194.67	-4.48
195.049	-10.78
195.429	-15.18
195.808	-16.05
196.188	-18.09
196.567	-19.22
196.946	-14.69
197.326	-13.93
197.705	-12.65
198.084	-13.21
198.464	-15.17
198.843	-14.48
199.222	-13.1
199.601	-14.72
199.98	-13.51
200.359	-11.97
200.738	-11.68
201.117	-13.67
201.496	-17.48
201.875	-16.81
202.254	-17.22
202.632	-19.55
203.011	-18.93
203.39	-18.08
203.768	-18.36
204.147	-17.23
204.525	-16.08
204.904	-16.16
205.282	-14.48
205.661	-17.39
206.039	-14.15
206.418	-16.57
206.796	-14.52
207.174	-15.48
207.552	-18.6
207.931	-19.75
208.309	-20.51
208.687	-19.91
209.065	-17.11
209.443	-17.26
209.821	-19.55
210.199	-22.52
210.577	-21.09
210.954	-17.78
211.332	-17.67
211.71	-17.67
212.088	-14.12
212.465	-14.85
212.843	-14.1
213.221	-13.22
213.598	-11.98
213.976	-13.25
214.353	-12.8
214.731	-15.95
215.108	-12.86
215.485	-12.93
215.863	-12.48
216.24	-14.52
216.617	-12.99
216.994	-11.97
217.371	-9.37
217.749	-9.65
218.126	-10.5
218.503	-10.52
218.88	-10.8
219.256	-10.12
219.633	-8.49
220.01	-8.43
220.387	-7.85
220.764	-7.32
221.14	-6.02
221.517	-6.03
221.894	-5.83
222.27	-5.98
222.647	-5.71
223.023	-5.54
223.4	-5.94
223.776	-4.89
224.153	-4.39
224.529	-4.3
224.905	-3.38
225.282	-2.69
225.658	-2.28
226.034	-2.69
226.41	-2.37
226.786	-2.46
227.162	-1.92
227.538	-1.94
227.914	-2.06
228.29	-1.96
228.666	-1.65
229.042	-1.57
229.418	-1.2
229.793	-1.27
230.169	-1.26
230.545	-1.5
230.92	-1.62
231.296	-1.36
231.672	-1.42
232.047	-1.29
232.422	-1.23
232.798	-0.71
233.173	-0.84
233.549	-0.68
233.924	-0.51
234.299	-0.46
234.674	-0.58
235.05	-0.73
235.425	-0.67
235.8	-0.61
236.175	-0.56
236.55	-0.51
236.925	-0.35
237.3	-0.17
237.675	-0.04
238.049	-0.08
238.424	0.03
238.799	0.07
239.174	0.17
239.548	0.26
239.923	0.39
240.297	0.45
240.672	0.45
241.046	0.59
241.421	0.58
241.795	0.52
242.17	0.44
242.544	0.5
242.918	0.47
243.293	0.45
243.667	0.28
244.041	0.34
244.415	0.39
244.789	0.42
245.163	0.39
245.537	0.39
245.911	0.38
246.285	0.37
246.659	0.35
247.033	0.3
247.406	0.32
247.78	0.28
248.154	0.23
248.528	0.27
248.901	0.22
249.275	0.2
249.648	0.23
250.022	0.19
250.395	0.11
250.769	0.07
251.142	0.17
251.515	0.19
251.888	0.16
252.262	0.18
252.635	0.19
253.008	0.25
253.381	0.24
253.754	0.27
254.127	0.3
254.5	0.34
254.873	0.36
255.246	0.33
255.619	0.34
255.992	0.38
256.364	0.4
256.737	0.4
257.11	0.42
257.483	0.41
257.855	0.44
258.228	0.48
258.6	0.48
258.973	0.52
259.345	0.63
259.718	0.63
260.09	0.67
260.462	0.59
260.834	0.62
261.207	0.63
261.579	0.64
261.951	0.64
262.323	0.59
262.695	0.62
263.067	0.62
263.439	0.64
263.811	0.64
264.183	0.61
264.555	0.65
264.927	0.69
265.298	0.63
265.67	0.6
266.042	0.61
266.413	0.59
266.785	0.59
267.156	0.53
267.528	0.47
267.899	0.43
268.271	0.37
268.642	0.24
269.013	0.27
269.385	0.3
269.756	0.32
270.127	0.24
270.498	0.23
270.87	0.21
271.241	0.22
271.612	0.25
271.983	0.25
272.354	0.2
272.724	0.19
273.095	0.2
273.466	0.2
273.837	0.19
274.208	0.19
274.578	0.17
274.949	0.23
275.32	0.24
275.69	0.2
276.061	0.2
276.431	0.17
276.802	0.17
277.172	0.22
277.542	0.2
277.913	0.26
278.283	0.29
278.653	0.24
279.023	0.23
279.394	0.3
279.764	0.28
280.134	0.28
280.504	0.27
280.874	0.29
281.244	0.28
281.614	0.31
281.983	0.26
282.353	0.27
282.723	0.29
283.093	0.26
283.462	0.22
283.832	0.27
284.202	0.29
284.571	0.26
284.941	0.28
285.31	0.3
285.68	0.35
286.049	0.33
286.418	0.3
286.788	0.35
287.157	0.31
287.526	0.27
287.895	0.25
288.264	0.27
288.633	0.22
289.002	0.19
289.371	0.25
289.74	0.2
290.109	0.2
290.478	0.15
290.847	0.16
291.216	0.21
291.585	0.08
291.953	0.01
292.322	0.06
292.691	0.05
293.059	-0.02
293.428	-0.04
293.796	0
294.165	0.04
294.533	-0
294.901	0
295.27	0.04
295.638	0.08
296.006	-0.01
296.374	-0.02
296.743	-0.01
297.111	0
297.479	0
297.847	0.07
298.215	0.1
298.583	0.04
298.95	0.08
299.318	0.09
299.686	0.13
300.054	0.11
300.422	0.1
300.789	0.17
301.157	0.22
301.525	0.17
301.892	0.16
302.26	0.22
302.627	0.22
302.994	0.19
303.362	0.2
303.729	0.24
304.097	0.15
304.464	0.13
304.831	0.09
305.198	0.13
305.565	0.18
305.932	0.14
306.299	0.12
306.666	0.11
307.033	0.06
307.4	0.11
307.767	0.11
308.134	0.07
308.501	0.05
308.867	0.01
309.234	0.05
309.601	0.08
309.967	0.04
310.334	0.02
310.701	0.07
311.067	0.09
311.433	0.12
311.8	0.02
312.166	0.02
312.533	-0.06
312.899	-0.06
313.265	0.05
313.631	0.09
313.997	0.12
314.363	0.09
314.729	0.08
315.096	0.1
315.461	0.08
315.827	0.1
316.193	0.09
316.559	0.08
316.925	0.07
317.291	0.07
317.656	0.08
318.022	0.12
318.388	0.13
318.753	0.06
319.119	0.1
319.484	0.16
319.85	0.1
320.215	0.06
320.581	0.01
320.946	0.06
321.311	0.03
321.676	0.03
322.042	0.03
322.407	-0.03
322.772	-0.04
323.137	-0.06
323.502	0.01
323.867	0.06
324.232	0
324.597	0.05
324.962	0.04
325.327	0.05
325.691	0.04
326.056	0.06
326.421	0.09
326.785	0.06
327.15	0.04
327.514	-0.06
327.879	-0.04
328.243	-0.06
328.608	-0.11
328.972	-0.04
329.337	-0.06
329.701	-0.05
330.065	-0.02
330.429	-0.01
330.794	0.05
331.158	0.04
331.522	-0.03
331.886	-0.05
332.25	-0.06
332.614	-0.11
332.978	-0.14
333.342	-0.12
333.705	-0.14
334.069	-0.2
334.433	-0.25
334.797	-0.25
335.16	-0.25
335.524	-0.25
335.887	-0.22
336.251	-0.21
336.614	-0.16
336.978	-0.15
337.341	-0.18
337.705	-0.16
338.068	-0.15
338.431	-0.14
338.794	-0.14
339.158	-0.17
339.521	-0.2
339.884	-0.23
340.247	-0.26
340.61	-0.2
340.973	-0.19
341.336	-0.18
341.699	-0.2
342.062	-0.25
342.424	-0.25
342.787	-0.24
343.15	-0.23
343.512	-0.15
343.875	-0.17
344.238	-0.15
344.6	-0.22
344.963	-0.26
345.325	-0.28
345.688	-0.33
346.05	-0.32
346.412	-0.25
346.775	-0.3
347.137	-0.33
347.499	-0.33
347.861	-0.31
348.223	-0.27
348.585	-0.3
348.947	-0.27
349.309	-0.28
349.671	-0.22
350.033	-0.22
350.395	-0.22
350.757	-0.27
351.118	-0.28
351.48	-0.3
351.842	-0.33
352.203	-0.31
352.565	-0.42
352.927	-0.35
353.288	-0.37
353.65	-0.39
354.011	-0.4
354.372	-0.36
354.734	-0.32
355.095	-0.33
355.456	-0.39
355.817	-0.41
356.179	-0.44
356.54	-0.44
356.901	-0.48
357.262	-0.52
357.623	-0.5
357.984	-0.43
358.345	-0.37
358.705	-0.48
359.066	-0.55
359.427	-0.58
359.788	-0.57
360.148	-0.55
360.509	-0.55
360.87	-0.44
361.23	-0.4
361.591	-0.32
361.951	-0.41
362.312	-0.45
362.672	-0.36
363.032	-0.3
363.393	-0.32
363.753	-0.36
364.113	-0.42
364.473	-0.42
364.833	-0.35
365.193	-0.38
365.553	-0.39
365.913	-0.43
366.273	-0.46
366.633	-0.5
366.993	-0.65
367.353	-0.75
367.713	-0.74
368.072	-0.74
368.432	-0.69
368.792	-0.7
369.151	-0.71
369.511	-0.64
369.87	-0.75
370.23	-0.71
370.589	-0.68
370.949	-0.65
371.308	-0.65
371.667	-0.68
372.027	-0.72
372.386	-0.72
372.745	-0.69
373.104	-0.67
373.463	-0.67
373.822	-0.72
374.181	-0.73
374.54	-0.69
374.899	-0.61
375.258	-0.58
375.617	-0.48
375.975	-0.41
376.334	-0.36
376.693	-0.25
377.052	-0.19
377.41	-0.18
377.769	-0.14
378.127	-0.1
378.486	-0.22
378.844	-0.21
379.202	-0.23
379.561	-0.33
379.919	-0.31
380.277	-0.29
380.636	-0.31
380.994	-0.38
381.352	-0.36
381.71	-0.33
382.068	-0.25
382.426	-0.24
382.784	-0.23
383.142	-0.2
383.5	-0.2
383.857	-0.18
384.215	-0.18
384.573	-0.26
384.931	-0.25
385.288	-0.28
385.646	-0.38
386.003	-0.39
386.361	-0.41
386.718	-0.41
387.076	-0.44
387.433	-0.34
387.791	-0.33
388.148	-0.37
388.505	-0.35
388.862	-0.35
389.22	-0.31
389.577	-0.29
389.934	-0.23
390.291	-0.27
390.648	-0.33
391.005	-0.4
391.362	-0.44
391.718	-0.44
392.075	-0.47
392.432	-0.51
392.789	-0.51
393.145	-0.53
393.502	-0.48
393.859	-0.49
394.215	-0.49
394.572	-0.53
394.928	-0.51
395.285	-0.55
395.641	-0.57
395.997	-0.6
396.354	-0.66
396.71	-0.64
397.066	-0.66
397.422	-0.58
397.778	-0.6
398.134	-0.59
398.491	-0.67
398.846	-0.66
399.202	-0.67
399.558	-0.73
399.914	-0.73
400.27	-0.7
400.626	-0.73
400.981	-0.75
401.337	-0.75
401.693	-0.77
402.048	-0.83
402.404	-0.79
402.759	-0.79
403.115	-0.76
403.47	-0.7
403.826	-0.75
404.181	-0.77
404.536	-0.75
404.892	-0.75
405.247	-0.68
405.602	-0.73
405.957	-0.66
406.312	-0.77
406.667	-0.82
407.022	-0.91
407.377	-0.86
407.732	-0.87
408.087	-0.85
408.442	-0.78
408.796	-0.82
409.151	-0.81
409.506	-0.77
409.86	-0.75
410.215	-0.78
410.57	-0.79
410.924	-0.64
411.279	-0.65
411.633	-0.69
411.987	-0.72
412.342	-0.71
412.696	-0.65
413.05	-0.59
413.404	-0.63
413.758	-0.52
414.113	-0.53
414.467	-0.51
414.821	-0.58
415.175	-0.53
415.529	-0.5
415.882	-0.44
416.236	-0.35
416.59	-0.35
416.944	-0.31
417.298	-0.19
417.651	-0.14
418.005	-0.04
418.358	-0.01
418.712	0.01
419.065	0.02
419.419	-0.03
419.772	-0.08
420.126	-0.03
420.479	0.07
420.832	0.05
421.185	0.1
421.539	0.05
421.892	0.07
422.245	0.14
422.598	0.15
422.951	0.17
423.304	0.16
423.657	0.22
424.01	0.29
424.363	0.32
424.715	0.3
425.068	0.29
425.421	0.31
425.773	0.27
426.126	0.32
426.479	0.36
426.831	0.33
427.184	0.29
427.536	0.27
427.889	0.3
428.241	0.35
428.593	0.35
428.945	0.34
429.298	0.36
429.65	0.43
430.002	0.48
430.354	0.61
430.706	0.66
431.058	0.66
431.41	0.66
431.762	0.61
432.114	0.64
432.466	0.65
432.817	0.66
433.169	0.73
433.521	0.76
433.872	0.78
434.224	0.8
434.576	0.87
434.927	0.84
435.279	0.86
435.63	0.89
435.981	0.97
436.333	1.11
436.684	1.16
437.035	1.18
437.387	1.17
437.738	1.17
438.089	1.16
438.44	1.21
438.791	1.07
439.142	0.99
439.493	1.02
439.844	1.03
440.195	1.11
440.545	1.22
440.896	1.31
441.247	1.37
441.598	1.41
441.948	1.4
442.299	1.4
442.649	1.39
443	1.38
443.35	1.4
443.701	1.34
444.051	1.29
444.401	1.24
444.752	1.23
445.102	1.15
445.452	1.08
445.802	1.06
446.152	1.06
446.502	1.04
446.852	0.96
447.202	0.97
447.552	1.01
447.902	1.11
448.252	1.02
448.602	1.55
448.952	1.47
449.301	1.43
449.651	1.42
450.001	1.39
450.35	1.3
450.7	1.31
451.049	1.39
451.399	1.47
451.748	1.47
452.097	1.6
452.447	1.51
452.796	1.62
453.145	1.81
453.494	1.77
453.843	1.83
454.193	1.93
454.542	1.96
454.891	2.02
455.239	2.04
455.588	2.21
455.937	2.18
456.286	2.32
456.635	2.21
456.984	2.3
457.332	1.81
457.681	1.82
458.03	1.93
458.378	1.94
458.727	2.04
459.075	2.15
459.423	2.24
459.772	2.27
460.12	2.2
460.468	2.37
460.817	2.36
461.165	2.56
461.513	2.64
461.861	2.56
462.209	2.79
462.557	2.96
462.905	3.02
463.253	3.06
463.601	3.22
463.949	3.3
464.297	3.28
464.644	3.38
464.992	3.37
465.34	3.46
465.687	3.53
466.035	3.45
466.383	3.51
466.73	3.42
467.078	3.36
467.425	3.26
467.772	3.32
468.12	3.32
468.467	3.27
468.814	3.36
469.161	3.23
469.508	3.2
469.856	3.14
470.203	3.05
470.55	2.96
470.897	2.88
471.243	2.66
471.59	2.73
471.937	2.79
472.284	2.66
472.631	2.62
472.977	2.64
473.324	2.59
473.671	2.53
474.017	2.53
474.364	2.4
474.71	2.47
475.057	2.43
475.403	2.48
475.749	2.51
476.096	2.59
476.442	2.59
476.788	2.54
477.134	2.61
477.48	2.65
477.826	2.68
478.172	2.68
478.518	2.77
478.864	2.81
479.21	2.98
479.556	3.01
479.902	3.11
480.248	3.07
480.593	3.05
480.939	3.05
481.285	3.09
481.63	3.1
481.976	3.15
482.321	3.2
482.667	3.25
483.012	3.33
483.357	3.43
483.703	3.51
484.048	3.67
484.393	3.84
484.738	3.86
485.084	3.85
485.429	3.93
485.774	4.02
486.119	4.12
486.464	4.29
486.808	4.41
487.153	4.52
487.498	4.67
487.843	4.7
488.188	4.87
488.532	5.1
488.877	5.3
489.222	5.57
489.566	5.86
489.911	6.2
490.255	6.47
490.6	6.71
490.944	6.95
491.288	7.24
491.633	7.51
491.977	7.71
492.321	8.05
492.665	8.24
493.009	8.5
493.353	8.9
493.697	9.24
494.041	9.58
494.385	9.91
494.729	10.16
495.073	10.53
495.417	10.89
495.76	11.24
496.104	11.62
496.448	12.12
496.791	12.59
497.135	12.99
497.479	13.43
497.822	13.88
498.165	14.33
498.509	14.78
498.852	15.25
499.196	15.81
499.539	16.3
499.882	16.79
500.225	17.42
500.568	18.01
500.911	18.47
501.254	18.98
501.597	19.52
501.94	20.04
502.283	20.65
502.626	21.22
502.969	21.83
503.312	22.45
503.654	22.97
503.997	23.54
504.34	24.13
504.682	24.72
505.025	25.27
505.367	25.78
505.71	26.23
506.052	26.77
506.395	27.38
506.737	27.99
507.079	28.5
507.421	29.1
507.764	29.63
508.106	30.27
508.448	30.84
508.79	31.35
509.132	31.87
509.474	32.46
509.816	32.97
510.158	33.54
510.499	34.04
510.841	34.57
511.183	35.09
511.525	35.61
511.866	36.09
512.208	36.6
512.549	37.15
512.891	37.69
513.232	38.24
513.574	38.79
513.915	39.27
514.256	39.83
514.598	40.43
514.939	40.89
515.28	41.33
515.621	41.81
515.962	42.25
516.303	42.75
516.644	43.12
516.985	43.55
517.326	43.95
517.667	44.32
518.008	44.65
518.349	45.15
518.69	45.48
519.03	45.89
519.371	46.3
519.712	46.59
520.052	46.79
520.393	47.05
520.733	47.38
521.074	47.67
521.414	48.11
521.754	48.29
522.095	48.54
522.435	48.88
522.775	49.14
523.115	49.39
523.455	49.49
523.795	49.63
524.135	49.84
524.475	49.98
524.815	50.11
525.155	50.37
525.495	50.56
525.835	50.77
526.175	51.04
526.514	51.4
526.854	51.57
527.194	51.74
527.533	51.93
527.873	52.01
528.212	52.27
528.552	52.54
528.891	52.76
529.23	52.93
529.57	53.17
529.909	53.25
530.248	53.39
530.587	53.56
530.927	53.52
531.266	53.53
531.605	53.5
531.944	53.69
532.283	53.93
532.621	54.01
532.96	54.33
533.299	54.52
533.638	54.72
533.977	54.82
534.315	54.92
534.654	55.06
534.992	54.96
535.331	54.95
535.67	55.09
536.008	55.12
536.346	55.32
536.685	55.24
537.023	55.27
537.361	55.43
537.7	55.56
538.038	55.59
538.376	55.58
538.714	55.75
539.052	55.68
539.39	55.83
539.728	56.04
540.066	56.14
540.404	56.23
540.741	56.22
541.079	56.3
541.417	56.25
541.755	56.22
542.092	56.11
542.43	56.02
542.767	56
543.105	55.87
543.442	56.05
543.78	56.23
544.117	56.31
544.454	56.47
544.792	56.38
545.129	56.66
545.466	56.65
545.803	56.67
546.14	56.71
546.477	56.65
546.814	56.73
547.151	56.54
547.488	56.77
547.825	56.9
548.162	56.9
548.499	56.98
548.835	57.14
549.172	57.31
549.509	57.38
549.845	57.41
550.182	57.51
550.518	57.51
550.855	57.66
551.191	57.78
551.528	57.81
551.864	57.83
552.2	57.86
552.537	57.88
552.873	57.9
553.209	58.06
553.545	57.86
553.881	58.02
554.217	58.05
554.553	58.02
554.889	58.13
555.225	58.05
555.561	58.15
555.896	57.98
556.232	57.89
556.568	57.94
556.903	57.98
557.239	57.75
557.575	57.69
557.91	57.8
558.245	57.79
558.581	57.71
558.916	57.84
559.252	58
559.587	57.94
559.922	57.93
560.257	57.94
560.592	57.99
560.928	58
561.263	58.09
561.598	57.96
561.933	58.19
562.267	58.26
562.602	58.42
562.937	58.53
563.272	58.53
563.607	58.4
563.941	58.77
564.276	58.91
564.611	58.79
564.945	58.98
565.28	59.06
565.614	59.13
565.949	59.14
566.283	59.05
566.617	59.21
566.951	59.43
567.286	59.55
567.62	59.5
567.954	59.6
568.288	59.8
568.622	59.74
568.956	59.58
569.29	59.64
569.624	59.48
569.958	59.67
570.292	59.63
570.626	59.7
570.959	59.72
571.293	59.76
571.627	59.85
571.96	60.05
572.294	59.93
572.627	59.87
572.961	60.12
573.294	60.15
573.627	60.21
573.961	60.27
574.294	60.33
574.627	60.43
574.961	60.47
575.294	60.44
575.627	60.59
575.96	60.59
576.293	60.42
576.626	60.41
576.959	60.49
577.292	60.59
577.624	60.56
577.957	60.7
578.29	60.68
578.623	60.67
578.955	60.58
579.288	60.53
579.62	60.45
579.953	60.34
580.285	60.3
580.618	60.37
580.95	60.5
581.282	60.44
581.615	60.48
581.947	60.4
582.279	60.45
582.611	60.42
582.943	60.37
583.275	60.27
583.607	60.33
583.939	60.15
584.271	60.08
584.603	60.26
584.935	60.27
585.267	60.32
585.598	60.35
585.93	60.45
586.262	60.46
586.593	60.5
586.925	60.6
587.256	60.54
587.588	60.46
587.919	60.49
588.25	60.62
588.582	60.65
588.913	60.72
589.244	60.64
589.575	60.64
589.907	60.44
590.238	60.38
590.569	60.3
590.9	60.33
591.231	60.31
591.562	60.3
591.892	60.13
592.223	60.19
592.554	60.43
592.885	60.42
593.215	60.37
593.546	60.2
593.877	60.12
594.207	60.12
594.538	59.98
594.868	59.93
595.198	59.81
595.529	59.97
595.859	59.98
596.189	60.09
596.52	60.12
596.85	60.2
597.18	60.12
597.51	60.13
597.84	60.12
598.17	60.21
598.5	60.17
598.83	60.23
599.16	60.3
599.489	60.43
599.819	60.5
600.149	60.43
600.479	60.3
600.808	60.16
601.138	60.15
601.467	60.02
601.797	60.11
602.126	60.13
602.456	60.07
602.785	60.18
603.114	60.05
603.443	60.03
603.773	60.01
604.102	59.98
604.431	59.92
604.76	59.68
605.089	59.56
605.418	59.39
605.747	59.39
606.076	59.4
606.405	59.33
606.733	59.45
607.062	59.45
607.391	59.35
607.72	59.16
608.048	58.99
608.377	59.02
608.705	58.99
609.034	58.96
609.362	59.13
609.69	59.38
610.019	59.26
610.347	59.27
610.675	59.36
611.004	59.32
611.332	59.32
611.66	59.43
611.988	59.3
612.316	59.46
612.644	59.29
612.972	59.52
613.3	59.44
613.627	59.47
613.955	59.49
614.283	59.32
614.611	59.26
614.938	59.27
615.266	59.28
615.593	59.32
615.921	59.17
616.248	59.29
616.576	59.41
616.903	59.3
617.23	59.11
617.558	58.87
617.885	58.53
618.212	58.62
618.539	58.79
618.866	58.2
619.193	58.04
619.52	58.17
619.847	58
620.174	58.05
620.501	57.76
620.828	57.85
621.155	57.72
621.481	57.58
621.808	57.73
622.135	57.78
622.461	57.67
622.788	57.73
623.114	57.67
623.441	57.25
623.767	57.06
624.093	57.28
624.42	56.99
624.746	56.82
625.072	56.92
625.398	57.21
625.725	57.31
626.051	57.5
626.377	57.4
626.703	56.91
627.029	57.25
627.354	57.1
627.68	56.71
628.006	56.86
628.332	56.71
628.658	56.74
628.983	56.73
629.309	56.51
629.634	56.47
629.96	56.48
630.285	56.26
630.611	56.39
630.936	56.37
631.262	56.65
631.587	56.82
631.912	57.14
632.237	57.66
632.562	58.17
632.887	58.3
633.213	58.31
633.538	58.34
633.863	58.22
634.187	57.76
634.512	57.75
634.837	57.88
635.162	57.66
635.487	57.52
635.811	57.93
636.136	58.15
636.461	57.5
636.785	57.21
637.11	57.4
637.434	57.73
637.758	58.15
638.083	57.6
638.407	57.4
638.731	57.16
639.056	57.12
639.38	56.76
639.704	57.37
640.028	57.76
640.352	57.01
640.676	56.51
641	56.16
641.324	56.3
641.648	56.02
641.972	55.99
642.295	56.46
642.619	56.33
642.943	56.14
643.266	56.08
643.59	56.12
643.913	55.88
644.237	55.41
644.56	55.47
644.884	55.63
645.207	55.6
645.53	55.4
645.854	55.2
646.177	55.51
646.5	55.61
646.823	56.06
647.146	55.76
647.469	55.46
647.792	54.8
648.115	53.8
648.438	54.04
648.761	56.36
649.084	57.18
649.406	57.29
649.729	57.22
650.052	56.98
650.374	56.88
650.697	56.92
651.019	56.97
651.342	56.9
651.664	56.92
651.987	56.96
652.309	57.02
652.631	57.22
652.953	57.38
653.276	57.33
653.598	57.31
653.92	57.38
654.242	57.35
654.564	57.43
654.886	57.37
655.208	57.38
655.53	57.44
655.851	57.53
656.173	57.58
656.495	57.61
656.816	56.75
657.138	56.5
657.46	55.94
657.781	55.47
658.103	55.28
658.424	54.99
658.746	54.69
659.067	54.26
659.388	54.82
659.709	54.83
660.031	53.86
660.352	53.48
660.673	51.69
660.994	51.22
661.315	50.99
661.636	51.26
661.957	50.98
662.278	50.58
662.599	49.81
662.919	48.81
663.24	49.22
663.561	48.67
663.881	47.66
664.202	47.96
664.523	46.99
664.843	46.9
665.164	46.12
665.484	46.8
665.804	46.8
666.125	46.31
666.445	46.5
666.765	46.44
667.085	46.48
667.405	45.93
667.726	46.26
668.046	46.65
668.366	45.73
668.686	47.64
669.005	47.45
669.325	47.11
669.645	46.62
669.965	46.33
670.285	46.59
670.604	46.71
670.924	47.16
671.243	47.46
671.563	48.08
671.882	49.02
672.202	48.49
672.521	48.95
672.841	48.84
673.16	48.88
673.479	48.42
673.798	47.81
674.117	48.08
674.437	47.58
674.756	48.29
675.075	48.74
675.394	48.31
675.713	48.51
676.031	49.09
676.35	49.97
676.669	49.49
676.988	50
677.306	50.67
677.625	50.98
677.944	51.73
678.262	51.87
678.581	51.99
678.899	52.09
679.218	52
679.536	51.56
679.854	51.65
680.172	51.76
680.491	51.62
680.809	51.66
681.127	51.75
681.445	52.32
681.763	52.33
682.081	52.16
682.399	52.36
682.717	51.65
683.035	51.65
683.352	51.71
683.67	51.2
683.988	51.55
684.306	52.19
684.623	52.19
684.941	52.06
685.258	51.77
685.576	52.06
685.893	51.61
686.211	51.53
686.528	51.42
686.845	52.27
687.162	51.82
687.48	52.2
687.797	52.63
688.114	52.79
688.431	52.96
688.748	52.89
689.065	53.02
689.382	52.55
689.699	53.81
690.015	54.07
690.332	55.1
690.649	55.72
690.966	55.26
691.282	55.65
691.599	56.2
691.915	55.39
692.232	54.81
692.548	55.53
692.865	55.98
693.181	55.92
693.497	54.92
693.813	54.71
694.13	55.24
694.446	55.34
694.762	54.89
695.078	55.34
695.394	56.14
695.71	54.41
696.026	54
696.342	53.82
696.658	53.88
696.973	54.89
697.289	54.38
697.605	53.63
697.92	54.07
698.236	53.16
698.551	52.45
698.867	53.14
699.182	53.03
699.498	52.06
699.813	52.33
700.128	53.34
700.444	52.26
700.759	51.91
701.074	52.25
701.389	53.21
701.704	53.22
702.019	52.17
702.334	53.33
702.649	52.78
702.964	52.61
703.279	51.92
703.594	53.48
703.908	54.15
704.223	54.19
704.538	53.59
704.852	51.59
705.167	51.9
705.481	51.22
705.796	50.47
706.11	49.81
706.425	50.53
706.739	50.47
707.053	51.6
707.368	52.24
707.682	51.75
707.996	50.61
708.31	51.37
708.624	51.06
708.938	51.36
709.252	51.12
709.566	51.4
709.88	52.46
710.193	50.3
710.507	50.23
710.821	51.06
711.135	50.05
711.448	49.28
711.762	49.73
712.075	50.38
712.389	52.49
712.702	53.49
713.015	52.8
713.329	53.27
713.642	53.68
713.955	54.66
714.269	54.2
714.582	53.77
714.895	52.09
715.208	52.49
715.521	53.69
715.834	53.78
716.147	53.6
716.459	53.84
716.772	53.42
717.085	53.64
717.398	53.48
717.71	52.79
718.023	54.36
718.336	54.26
718.648	53.66
718.961	53.98
719.273	53.54
719.585	53.19
719.898	51.94
720.21	50.47
720.522	50.47
720.834	51.02
721.147	52.37
721.459	51.5
721.771	51.27
722.083	51.11
722.395	52.33
722.707	53.55
723.019	52.19
723.33	51.62
723.642	53.6
723.954	52.87
724.265	52.85
724.577	52.74
724.889	53.22
725.2	52.97
725.512	52.77
725.823	52.83
726.135	53.76
726.446	53.36
726.757	53.96
727.068	54.84
727.38	55.02
727.691	56.36
728.002	56.64
728.313	56.05
728.624	56.95
728.935	55.5
729.246	57.01
729.557	57.55
729.867	58.33
730.178	57.71
730.489	58.39
730.8	59.34
731.11	60.02
731.421	58.99
731.731	58.95
732.042	58.27
732.352	57.83
732.663	57.59
732.973	57.51
733.283	57.74
733.594	57.4
733.904	57.6
734.214	58.05
734.524	58.32
734.834	59.24
735.144	58.22
735.454	57.22
735.764	57.36
736.074	58.28
736.384	58.12
736.694	59.6
737.003	59.12
737.313	59.86
737.623	58.07
737.932	58.64
738.242	58.19
738.551	57.73
738.861	56.75
739.17	56.01
739.479	55.96
739.789	57.05
740.098	57.08
740.407	57.24
740.716	59.58
741.025	59.59
741.334	60.42
741.643	60.33
741.952	58.61
742.261	57.92
742.57	55.99
742.879	56.77
743.188	57.96
743.497	58.9
743.805	58.11
744.114	57.2
744.422	54.12
744.731	53.71
745.04	50.32
745.348	52.78
745.656	49.76
745.965	51.41
746.273	51.52
746.581	51.05
746.889	51.34
747.198	50.61
747.506	50.77
747.814	51.36
748.122	50.28
748.43	48.46
748.738	48.44
749.046	48.14
749.353	48.22
749.661	51.32
749.969	51.89
750.277	49.51
750.584	50.87
750.892	49.19
751.199	49.72
751.507	49.49
751.814	50.35
752.122	52.27
752.429	52.16
752.736	53.6
753.044	52.15
753.351	53.12
753.658	51.51
753.965	52.24
754.272	52.72
754.579	52.17
754.886	51.98
755.193	52.05
755.5	51.85
755.807	51.73
756.114	49.93
756.42	50.39
756.727	49.97
757.034	48.87
757.34	46.96
757.647	45.49
757.953	44.87
758.26	44.11
758.566	45.31
758.872	43.61
759.179	45.15
759.485	45
759.791	44.35
760.097	43.17
760.403	39.83
760.709	39.34
761.015	37.91
761.321	36.33
761.627	35.63
761.933	32.97
762.239	33.9
762.545	32.66
762.851	31.58
763.156	30.07
763.462	30.27
763.767	32
764.073	31.25
764.378	29.07
764.684	27.49
764.989	26.67
765.295	26.72
765.6	28.38
765.905	25.46
766.21	22.18
766.515	16.96
766.821	12.97
767.126	11.9
767.431	14.93
767.736	13.93
768.041	11.25
768.345	10.32
768.65	12.62
768.955	8.31
769.26	6.04
769.564	7.54
769.869	6.28
770.174	6.28
770.478	5.51
770.783	-3.56
771.087	-0.49
771.391	-8.01
771.696	-7.1
772	-3.38
772.304	-5.07
772.608	-0.06
772.913	7.2
773.217	4.98
773.521	6.05
773.825	11.83
774.129	24.74
774.433	21.28
774.736	11.57
775.04	1.11
775.344	12.73
775.648	17.09
775.951	15
776.255	14.24
776.559	18.79
776.862	20.69
777.166	28.7
777.469	19.23
777.772	18.97
778.076	16.99
778.379	29.52
778.682	18.96
778.985	17.07
779.289	11.28
779.592	13.11
779.895	17.99
780.198	15.98
780.501	10.48
780.804	14
781.106	15.09
781.409	0.32
781.712	-3.68
782.015	-9.81
782.317	-6.77
782.62	-7.9
782.923	-18.9
783.225	-17.01
783.527	-10.74
783.83	-21.96
784.132	-31.09
784.435	-33.58
784.737	-31.84
785.039	-20.96
785.341	-15.47
785.643	-29.72
785.945	-42.28
786.248	-36.91
786.55	-26.35
786.851	-28.03
787.153	-32.97
787.455	-28.52
787.757	-24.87
788.059	-36.56
788.36	-57.08
788.662	-58.19
788.964	-43.14
789.265	-54.32
789.567	-43.52
789.868	-28.98
790.17	-28.96
790.471	-30.61
790.772	-45.61
791.074	-78.35
791.375	-70.8
791.676	-51.52
791.977	-51.93
792.278	-65.2
792.579	-72.24
792.88	-79.82
793.181	-53.34
793.482	-51.23
793.783	-54.54
794.083	-59.75
794.384	-61.66
794.685	-57.21
794.986	-99.14
795.286	-136.28
795.587	-103.52
795.887	-88.77
796.188	-71.53
796.488	-80.47
796.788	-64.94
797.089	-60.34
797.389	-61.22
797.689	-78.48
797.989	-129.13
798.289	-119.5
798.589	-82.9
798.889	-85.64
799.189	-93.71
799.489	-81.18
799.789	-72.69
800.089	-78.73
800.389	-93.68
800.688	-82.61
800.988	-76.91
801.288	-82.9
801.587	-87.82
801.887	-106.07
802.186	-128.85
802.486	-89.36
802.785	-80.74
803.085	-111.51
803.384	-101.85
803.683	-146.51
803.982	-159.14
804.281	-224.67
804.58	-205.98
804.879	-508.57
805.178	-597.67
805.477	-274.41
805.776	-283.07
806.075	-456.6
806.374	-335.32
806.673	-349.75
806.971	-685.5
807.27	-4637.78
807.569	-7748.28
807.867	-5382.35
808.166	2658.49
808.464	2194.28
808.763	801.61
809.061	606.71
809.359	697.32
809.658	683.28
809.956	509.93
810.254	417.49
810.552	391.77
810.85	402.03
811.148	377.95
811.446	371.5
811.744	365.05
812.042	312.86
812.34	297.7
812.638	321.83
812.935	290.3
813.233	251.8
813.531	320.54
813.828	292.29
814.126	280.13
814.423	314.76
814.721	419.28
815.018	280.18
815.316	312.98
815.613	329.21
815.91	377.74
816.207	317.53
816.504	257.4
816.802	392.04
817.099	305.18
817.396	500.79
817.693	649.26
817.99	878.61
818.286	675.03
818.583	-978.68
818.88	818.42
819.177	444.92
819.473	567.99
819.77	639.06
820.067	1674.13
820.363	4916.44
820.66	-2468.31
820.956	1361.34
821.252	-11417.95
821.549	3145.26
821.845	3838.84
822.141	-2628.14
822.437	-736.36
822.734	-1215.76
823.03	2047.93
823.326	510.57
823.622	809.51
823.918	6661.4
824.213	1385.41
824.509	1343.1
824.805	793.67
825.101	462.44
825.397	378.69
825.692	692.54
825.988	299.74
826.283	506.21
826.579	1170.34
826.874	-6606.8
827.17	-16997.44
827.465	1653.88
827.76	874.8
828.056	829.52
828.351	2874.3
828.646	703.74
828.941	1005.53
829.236	919.5
829.531	590.47
829.826	406.18
830.121	422.9
830.416	552.45
830.711	459.93
831.006	473.7
831.3	497.46
831.595	362.34
831.89	300.35
832.184	247.5
832.479	255.34
832.773	253.13
833.068	224.25
833.362	221.6
833.656	215.58
833.951	196.71
834.245	191.15
834.539	217.43
834.833	228.44
835.127	196.14
835.421	188.9
835.715	168.56
836.009	196.61
836.303	180.69
836.597	169.16
836.891	164.87
837.185	199.63
837.478	190.06
837.772	167.87
838.066	199.27
838.359	198.01
838.653	189.63
838.946	202.78
839.24	255.9
839.533	287.55
839.826	401.04
840.119	415.13
840.413	432.8
840.706	490.51
840.999	334.47
841.292	383.8
841.585	326.24
841.878	244.3
842.171	277.83
842.464	450.28
842.757	421.37
843.049	402.09
843.342	299.01
843.635	298.25
843.927	375.92
844.22	420.56
844.513	523.85
844.805	968.88
845.098	1401.65
845.39	1473.18
845.682	1419.73
845.975	2278.11
846.267	745.15
846.559	557.77
846.851	431.84
847.143	315.26
847.435	404.94
847.727	427.36
848.019	621.93
848.311	1521.32
848.603	2865.67
848.895	-1953.82
849.186	-539.63
849.478	-28126.09
849.77	2102.43
850.061	3353.22
850.353	-6189.08
850.645	-1146.74
850.936	-1082.33
851.227	-110014.29
851.519	-2352.73
851.81	1604.29
852.101	1177.29
852.393	3408.76
852.684	-4506.62
852.975	-1435.82
853.266	-623.91
853.557	-557.79
853.848	-312.79
854.139	-205.26
854.43	-249.79
854.72	-464.91
855.011	-652.6
855.302	-617.22
855.593	-666.08
855.883	-854.63
856.174	-739.22
856.464	-2870.49
856.755	3107.57
857.045	1563.13
857.336	1463.99
857.626	-5228.74
857.916	4037.19
858.206	-20752.17
858.497	-565.68
858.787	-705.71
859.077	-957.58
859.367	-365.75
859.657	-637.29
859.947	-3059.28
860.237	3869.34
860.527	761.05
860.816	599.89
861.106	287.34
861.396	364.55
861.685	560.99
861.975	761.84
862.265	967.48
862.554	636.38
862.844	-2380.87
863.133	-1814.83
863.422	-2068.42
863.712	-790.78
864.001	-334.41
864.29	-311.37
864.579	-326.85
864.868	-533.16
865.157	-495.36
865.446	-672.41
865.735	-989.09
866.024	-851.82
866.313	-483.52
866.602	-774.29
866.891	-645.6
867.179	-375.26
867.468	-325.68
