Data from T2_Reflection__91__19-51-30-163.txt Node

Date: Fri Jun 04 19:51:30 CEST 2021
User: mabdelazizm
Spectrometer: FLMS18565
Trigger mode: 0
Integration Time (sec): 2.000000E0
Scans to average: 1
Electric dark correction enabled: true
Nonlinearity correction enabled: false
Boxcar width: 12
XAxis mode: Wavelengths
Number of Pixels in Spectrum: 2048
>>>>>Begin Spectral Data<<<<<
179.071	54.2
179.452	38.23
179.833	-31.93
180.214	-75
180.595	-107.16
180.977	-81.37
181.358	-84.12
181.739	-88.27
182.12	-1.52
182.501	-22.84
182.882	-42.24
183.262	-382.86
183.643	-80.52
184.024	-51.6
184.405	-25.32
184.786	-31.82
185.166	-44.48
185.547	-22.94
185.927	3.17
186.308	-10.16
186.689	9.91
187.069	11.51
187.449	4.05
187.83	-2.52
188.21	-4.88
188.59	-3.21
188.971	-0.95
189.351	6.13
189.731	11.76
190.111	12.22
190.491	5.87
190.871	5.13
191.251	9.75
191.631	11.05
192.011	10.15
192.391	10.11
192.771	13.82
193.151	12.18
193.531	10.94
193.91	10.93
194.29	13.22
194.67	17.34
195.049	13.32
195.429	9.38
195.808	11.48
196.188	5.51
196.567	3.97
196.946	6.04
197.326	3.9
197.705	3.17
198.084	2.82
198.464	1.5
198.843	1.8
199.222	-0.53
199.601	0.41
199.98	2.54
200.359	1.03
200.738	-0.7
201.117	-6.31
201.496	-7.29
201.875	-6.13
202.254	-6.57
202.632	-5.49
203.011	-3.34
203.39	-4.36
203.768	-2.57
204.147	-4.44
204.525	-4.43
204.904	-5.62
205.282	-4.6
205.661	-4.95
206.039	-3.4
206.418	-7.22
206.796	-3.08
207.174	-3.2
207.552	-3.51
207.931	-4.87
208.309	-6.25
208.687	-5.32
209.065	-4.15
209.443	-5.95
209.821	-5.86
210.199	-7.8
210.577	-5.43
210.954	-4.22
211.332	-5.28
211.71	-7.52
212.088	-5.78
212.465	-5.73
212.843	-4.36
213.221	-5.13
213.598	-5.42
213.976	-6.42
214.353	-6.13
214.731	-7.66
215.108	-8.08
215.485	-6.71
215.863	-5.52
216.24	-7.86
216.617	-5.79
216.994	-4.8
217.371	-2.81
217.749	-2.71
218.126	-3.52
218.503	-3.89
218.88	-4.79
219.256	-5.19
219.633	-3.81
220.01	-4.27
220.387	-3.27
220.764	-3.2
221.14	-1.56
221.517	-2.62
221.894	-2.97
222.27	-3.38
222.647	-3.75
223.023	-3.33
223.4	-3.44
223.776	-3.09
224.153	-3.36
224.529	-2.67
224.905	-2.15
225.282	-2.25
225.658	-1.76
226.034	-2.66
226.41	-2.52
226.786	-2.99
227.162	-2.63
227.538	-2.6
227.914	-2.57
228.29	-2.16
228.666	-1.52
229.042	-1.78
229.418	-1.53
229.793	-1.75
230.169	-1.69
230.545	-2.06
230.92	-1.89
231.296	-1.72
231.672	-1.71
232.047	-1.51
232.422	-1.54
232.798	-1.31
233.173	-1.21
233.549	-1.06
233.924	-1.06
234.299	-1.19
234.674	-1.15
235.05	-1.25
235.425	-0.99
235.8	-0.99
236.175	-0.89
236.55	-0.87
236.925	-0.76
237.3	-0.62
237.675	-0.64
238.049	-0.74
238.424	-0.68
238.799	-0.58
239.174	-0.51
239.548	-0.48
239.923	-0.41
240.297	-0.46
240.672	-0.44
241.046	-0.34
241.421	-0.34
241.795	-0.29
242.17	-0.38
242.544	-0.41
242.918	-0.42
243.293	-0.43
243.667	-0.44
244.041	-0.29
244.415	-0.25
244.789	-0.32
245.163	-0.35
245.537	-0.34
245.911	-0.31
246.285	-0.35
246.659	-0.37
247.033	-0.35
247.406	-0.27
247.78	-0.25
248.154	-0.35
248.528	-0.32
248.901	-0.31
249.275	-0.3
249.648	-0.19
250.022	-0.25
250.395	-0.29
250.769	-0.31
251.142	-0.31
251.515	-0.26
251.888	-0.24
252.262	-0.2
252.635	-0.15
253.008	-0.15
253.381	-0.21
253.754	-0.23
254.127	-0.22
254.5	-0.19
254.873	-0.17
255.246	-0.19
255.619	-0.12
255.992	-0.11
256.364	-0.11
256.737	-0.11
257.11	-0.12
257.483	-0.09
257.855	-0.09
258.228	-0.08
258.6	-0.06
258.973	-0.04
259.345	0.05
259.718	0.03
260.09	0.03
260.462	0.02
260.834	0.03
261.207	0.03
261.579	0
261.951	0
262.323	-0.05
262.695	-0.03
263.067	0.07
263.439	0.11
263.811	0.14
264.183	0.13
264.555	0.18
264.927	0.18
265.298	0.12
265.67	0.07
266.042	0.03
266.413	0.06
266.785	0.04
267.156	0
267.528	-0.01
267.899	-0
268.271	-0.05
268.642	-0.15
269.013	-0.14
269.385	-0.14
269.756	-0.16
270.127	-0.19
270.498	-0.2
270.87	-0.18
271.241	-0.21
271.612	-0.18
271.983	-0.18
272.354	-0.27
272.724	-0.33
273.095	-0.33
273.466	-0.38
273.837	-0.46
274.208	-0.48
274.578	-0.49
274.949	-0.42
275.32	-0.42
275.69	-0.47
276.061	-0.45
276.431	-0.48
276.802	-0.55
277.172	-0.54
277.542	-0.6
277.913	-0.57
278.283	-0.53
278.653	-0.53
279.023	-0.53
279.394	-0.5
279.764	-0.5
280.134	-0.49
280.504	-0.48
280.874	-0.46
281.244	-0.5
281.614	-0.51
281.983	-0.53
282.353	-0.47
282.723	-0.38
283.093	-0.31
283.462	-0.31
283.832	-0.3
284.202	-0.32
284.571	-0.37
284.941	-0.4
285.31	-0.35
285.68	-0.3
286.049	-0.3
286.418	-0.32
286.788	-0.21
287.157	-0.22
287.526	-0.24
287.895	-0.2
288.264	-0.17
288.633	-0.21
289.002	-0.24
289.371	-0.2
289.74	-0.2
290.109	-0.24
290.478	-0.25
290.847	-0.21
291.216	-0.16
291.585	-0.28
291.953	-0.4
292.322	-0.42
292.691	-0.46
293.059	-0.47
293.428	-0.47
293.796	-0.4
294.165	-0.35
294.533	-0.39
294.901	-0.38
295.27	-0.3
295.638	-0.35
296.006	-0.45
296.374	-0.48
296.743	-0.49
297.111	-0.53
297.479	-0.57
297.847	-0.52
298.215	-0.52
298.583	-0.6
298.95	-0.58
299.318	-0.55
299.686	-0.53
300.054	-0.57
300.422	-0.58
300.789	-0.61
301.157	-0.58
301.525	-0.6
301.892	-0.56
302.26	-0.58
302.627	-0.54
302.994	-0.57
303.362	-0.52
303.729	-0.49
304.097	-0.57
304.464	-0.62
304.831	-0.56
305.198	-0.56
305.565	-0.54
305.932	-0.52
306.299	-0.54
306.666	-0.53
307.033	-0.55
307.4	-0.5
307.767	-0.52
308.134	-0.56
308.501	-0.57
308.867	-0.55
309.234	-0.55
309.601	-0.51
309.967	-0.49
310.334	-0.44
310.701	-0.43
311.067	-0.47
311.433	-0.4
311.8	-0.47
312.166	-0.44
312.533	-0.51
312.899	-0.54
313.265	-0.46
313.631	-0.41
313.997	-0.43
314.363	-0.44
314.729	-0.41
315.096	-0.44
315.461	-0.43
315.827	-0.4
316.193	-0.41
316.559	-0.38
316.925	-0.36
317.291	-0.31
317.656	-0.28
318.022	-0.33
318.388	-0.29
318.753	-0.35
319.119	-0.32
319.484	-0.29
319.85	-0.32
320.215	-0.33
320.581	-0.36
320.946	-0.34
321.311	-0.38
321.676	-0.36
322.042	-0.38
322.407	-0.45
322.772	-0.47
323.137	-0.45
323.502	-0.42
323.867	-0.44
324.232	-0.48
324.597	-0.48
324.962	-0.51
325.327	-0.49
325.691	-0.52
326.056	-0.51
326.421	-0.5
326.785	-0.52
327.15	-0.51
327.514	-0.6
327.879	-0.56
328.243	-0.58
328.608	-0.6
328.972	-0.56
329.337	-0.58
329.701	-0.56
330.065	-0.5
330.429	-0.45
330.794	-0.44
331.158	-0.39
331.522	-0.41
331.886	-0.43
332.25	-0.47
332.614	-0.44
332.978	-0.47
333.342	-0.43
333.705	-0.44
334.069	-0.44
334.433	-0.46
334.797	-0.47
335.16	-0.47
335.524	-0.52
335.887	-0.53
336.251	-0.54
336.614	-0.52
336.978	-0.51
337.341	-0.47
337.705	-0.5
338.068	-0.43
338.431	-0.39
338.794	-0.44
339.158	-0.47
339.521	-0.54
339.884	-0.6
340.247	-0.65
340.61	-0.58
340.973	-0.59
341.336	-0.56
341.699	-0.63
342.062	-0.58
342.424	-0.57
342.787	-0.58
343.15	-0.58
343.512	-0.58
343.875	-0.61
344.238	-0.6
344.6	-0.61
344.963	-0.61
345.325	-0.66
345.688	-0.62
346.05	-0.64
346.412	-0.65
346.775	-0.67
347.137	-0.75
347.499	-0.75
347.861	-0.69
348.223	-0.71
348.585	-0.71
348.947	-0.68
349.309	-0.69
349.671	-0.69
350.033	-0.7
350.395	-0.7
350.757	-0.76
351.118	-0.86
351.48	-0.83
351.842	-0.84
352.203	-0.81
352.565	-0.84
352.927	-0.83
353.288	-0.84
353.65	-0.88
354.011	-0.88
354.372	-0.76
354.734	-0.78
355.095	-0.79
355.456	-0.84
355.817	-0.86
356.179	-0.91
356.54	-0.89
356.901	-1
357.262	-1.04
357.623	-1.03
357.984	-0.95
358.345	-0.95
358.705	-1
359.066	-1.01
359.427	-0.99
359.788	-0.91
360.148	-0.87
360.509	-0.9
360.87	-0.84
361.23	-0.9
361.591	-0.84
361.951	-0.87
362.312	-0.88
362.672	-0.85
363.032	-0.83
363.393	-0.86
363.753	-0.94
364.113	-0.97
364.473	-0.91
364.833	-0.84
365.193	-0.8
365.553	-0.78
365.913	-0.78
366.273	-0.75
366.633	-0.74
366.993	-0.86
367.353	-0.9
367.713	-0.87
368.072	-0.87
368.432	-0.87
368.792	-0.92
369.151	-0.92
369.511	-0.89
369.87	-0.96
370.23	-0.87
370.589	-0.9
370.949	-0.85
371.308	-0.88
371.667	-0.85
372.027	-0.87
372.386	-0.89
372.745	-0.82
373.104	-0.8
373.463	-0.82
373.822	-0.85
374.181	-0.88
374.54	-0.9
374.899	-0.82
375.258	-0.85
375.617	-0.85
375.975	-0.76
376.334	-0.69
376.693	-0.64
377.052	-0.59
377.41	-0.64
377.769	-0.56
378.127	-0.54
378.486	-0.62
378.844	-0.63
379.202	-0.68
379.561	-0.73
379.919	-0.78
380.277	-0.73
380.636	-0.8
380.994	-0.85
381.352	-0.87
381.71	-0.93
382.068	-0.89
382.426	-0.87
382.784	-0.86
383.142	-0.85
383.5	-0.86
383.857	-0.92
384.215	-0.91
384.573	-0.9
384.931	-0.88
385.288	-0.97
385.646	-1.05
386.003	-1.06
386.361	-1.03
386.718	-1.09
387.076	-1.12
387.433	-1.1
387.791	-1.03
388.148	-1.04
388.505	-1.05
388.862	-0.98
389.22	-0.96
389.577	-0.86
389.934	-0.82
390.291	-0.79
390.648	-0.72
391.005	-0.83
391.362	-0.91
391.718	-0.87
392.075	-0.94
392.432	-0.92
392.789	-0.9
393.145	-0.91
393.502	-0.98
393.859	-0.99
394.215	-0.9
394.572	-0.89
394.928	-0.92
395.285	-0.95
395.641	-0.96
395.997	-0.94
396.354	-0.93
396.71	-0.95
397.066	-0.96
397.422	-0.86
397.778	-0.96
398.134	-0.95
398.491	-1.04
398.846	-1.05
399.202	-1.04
399.558	-1.12
399.914	-1.04
400.27	-1.01
400.626	-1.09
400.981	-1.08
401.337	-1.13
401.693	-1.1
402.048	-1.13
402.404	-1.08
402.759	-1.08
403.115	-1.14
403.47	-1.13
403.826	-1.11
404.181	-1.06
404.536	-1.06
404.892	-1.09
405.247	-1.05
405.602	-1.09
405.957	-1.13
406.312	-1.2
406.667	-1.16
407.022	-1.19
407.377	-1.18
407.732	-1.19
408.087	-1.24
408.442	-1.18
408.796	-1.2
409.151	-1.19
409.506	-1.11
409.86	-1.05
410.215	-1.03
410.57	-1.11
410.924	-1.06
411.279	-1.1
411.633	-1.16
411.987	-1.11
412.342	-1.11
412.696	-1.09
413.05	-1.11
413.404	-1.01
413.758	-0.95
414.113	-0.93
414.467	-0.87
414.821	-0.86
415.175	-0.81
415.529	-0.81
415.882	-0.8
416.236	-0.82
416.59	-0.78
416.944	-0.77
417.298	-0.69
417.651	-0.64
418.005	-0.63
418.358	-0.65
418.712	-0.64
419.065	-0.69
419.419	-0.66
419.772	-0.7
420.126	-0.56
420.479	-0.44
420.832	-0.46
421.185	-0.38
421.539	-0.43
421.892	-0.47
422.245	-0.54
422.598	-0.54
422.951	-0.49
423.304	-0.5
423.657	-0.48
424.01	-0.56
424.363	-0.6
424.715	-0.59
425.068	-0.61
425.421	-0.61
425.773	-0.59
426.126	-0.55
426.479	-0.56
426.831	-0.57
427.184	-0.65
427.536	-0.64
427.889	-0.62
428.241	-0.61
428.593	-0.52
428.945	-0.54
429.298	-0.64
429.65	-0.65
430.002	-0.68
430.354	-0.61
430.706	-0.58
431.058	-0.58
431.41	-0.63
431.762	-0.72
432.114	-0.75
432.466	-0.68
432.817	-0.63
433.169	-0.52
433.521	-0.56
433.872	-0.51
434.224	-0.52
434.576	-0.56
434.927	-0.68
435.279	-0.67
435.63	-0.61
435.981	-0.52
436.333	-0.47
436.684	-0.41
437.035	-0.39
437.387	-0.47
437.738	-0.56
438.089	-0.51
438.44	-0.51
438.791	-0.62
439.142	-0.66
439.493	-0.66
439.844	-0.6
440.195	-0.5
440.545	-0.44
440.896	-0.45
441.247	-0.54
441.598	-0.58
441.948	-0.66
442.299	-0.65
442.649	-0.6
443	-0.62
443.35	-0.64
443.701	-0.63
444.051	-0.69
444.401	-0.71
444.752	-0.81
445.102	-0.88
445.452	-0.91
445.802	-0.9
446.152	-0.86
446.502	-0.82
446.852	-0.86
447.202	-0.85
447.552	-0.8
447.902	-0.76
448.252	-0.85
448.602	-0.33
448.952	-0.42
449.301	-0.54
449.651	-0.54
450.001	-0.51
450.35	-0.49
450.7	-0.45
451.049	-0.46
451.399	-0.45
451.748	-0.44
452.097	-0.24
452.447	-0.27
452.796	-0.2
453.145	-0.19
453.494	-0.16
453.843	-0.14
454.193	-0.12
454.542	-0.19
454.891	-0.21
455.239	-0.3
455.588	-0.2
455.937	-0.26
456.286	-0.26
456.635	-0.33
456.984	-0.27
457.332	-0.81
457.681	-0.81
458.03	-0.7
458.378	-0.73
458.727	-0.71
459.075	-0.71
459.423	-0.55
459.772	-0.52
460.12	-0.57
460.468	-0.49
460.817	-0.5
461.165	-0.53
461.513	-0.57
461.861	-0.56
462.209	-0.54
462.557	-0.42
462.905	-0.42
463.253	-0.35
463.601	-0.24
463.949	-0.22
464.297	-0.3
464.644	-0.18
464.992	-0.2
465.34	-0.19
465.687	-0.15
466.035	-0.3
466.383	-0.23
466.73	-0.32
467.078	-0.3
467.425	-0.29
467.772	-0.1
468.12	-0.19
468.467	-0.26
468.814	-0.22
469.161	-0.32
469.508	-0.3
469.856	-0.25
470.203	-0.23
470.55	-0.32
470.897	-0.26
471.243	-0.36
471.59	-0.37
471.937	-0.36
472.284	-0.41
472.631	-0.49
472.977	-0.42
473.324	-0.41
473.671	-0.44
474.017	-0.46
474.364	-0.5
474.71	-0.4
475.057	-0.48
475.403	-0.39
475.749	-0.39
476.096	-0.41
476.442	-0.43
476.788	-0.42
477.134	-0.35
477.48	-0.32
477.826	-0.28
478.172	-0.44
478.518	-0.34
478.864	-0.28
479.21	-0.19
479.556	-0.2
479.902	-0.13
480.248	-0.08
480.593	-0.09
480.939	-0.12
481.285	0.01
481.63	-0.03
481.976	-0.02
482.321	0.07
482.667	0.16
483.012	0.19
483.357	0.23
483.703	0.33
484.048	0.44
484.393	0.54
484.738	0.6
485.084	0.57
485.429	0.56
485.774	0.63
486.119	0.66
486.464	0.77
486.808	0.89
487.153	0.9
487.498	0.99
487.843	0.99
488.188	1.12
488.532	1.22
488.877	1.34
489.222	1.55
489.566	1.72
489.911	1.89
490.255	2.17
490.6	2.33
490.944	2.49
491.288	2.75
491.633	3.11
491.977	3.32
492.321	3.63
492.665	3.87
493.009	4.18
493.353	4.54
493.697	4.87
494.041	5.28
494.385	5.67
494.729	6.05
495.073	6.43
495.417	6.86
495.76	7.35
496.104	7.86
496.448	8.41
496.791	8.95
497.135	9.51
497.479	10.13
497.822	10.76
498.165	11.45
498.509	12.08
498.852	12.76
499.196	13.47
499.539	14.13
499.882	14.73
500.225	15.34
500.568	16.01
500.911	16.62
501.254	17.29
501.597	17.98
501.94	18.67
502.283	19.41
502.626	20.08
502.969	20.72
503.312	21.45
503.654	22.17
503.997	22.89
504.34	23.57
504.682	24.23
505.025	25.01
505.367	25.75
505.71	26.34
506.052	26.93
506.395	27.55
506.737	28.26
507.079	28.99
507.421	29.68
507.764	30.29
508.106	30.97
508.448	31.65
508.79	32.37
509.132	33.03
509.474	33.68
509.816	34.3
510.158	34.93
510.499	35.53
510.841	36.04
511.183	36.64
511.525	37.26
511.866	37.88
512.208	38.38
512.549	38.82
512.891	39.42
513.232	40.04
513.574	40.6
513.915	40.97
514.256	41.53
514.598	42.08
514.939	42.57
515.28	42.93
515.621	43.35
515.962	43.74
516.303	44.35
516.644	44.79
516.985	45.28
517.326	45.71
517.667	46.17
518.008	46.58
518.349	47.08
518.69	47.6
519.03	48.02
519.371	48.58
519.712	48.86
520.052	49.2
520.393	49.41
520.733	49.84
521.074	50.4
521.414	50.86
521.754	51.23
522.095	51.43
522.435	51.89
522.775	52.28
523.115	52.64
523.455	52.93
523.795	53.29
524.135	53.56
524.475	53.83
524.815	53.93
525.155	54.27
525.495	54.5
525.835	54.59
526.175	54.75
526.514	55.01
526.854	55.05
527.194	55.12
527.533	55.36
527.873	55.45
528.212	55.83
528.552	56.07
528.891	56.29
529.23	56.5
529.57	56.69
529.909	56.8
530.248	56.78
530.587	57.19
530.927	57.36
531.266	57.55
531.605	57.59
531.944	57.75
532.283	57.87
532.621	57.96
532.96	58.2
533.299	58.53
533.638	58.61
533.977	58.82
534.315	59.11
534.654	59.25
534.992	59.35
535.331	59.61
535.67	59.83
536.008	59.94
536.346	60.13
536.685	60.11
537.023	60.25
537.361	60.57
537.7	60.65
538.038	60.63
538.376	60.78
538.714	61.11
539.052	61.08
539.39	61.17
539.728	61.12
540.066	61.26
540.404	61.36
540.741	61.54
541.079	61.72
541.417	61.77
541.755	61.78
542.092	61.78
542.43	61.8
542.767	61.79
543.105	61.81
543.442	62.01
543.78	62.03
544.117	62.07
544.454	62.14
544.792	62.19
545.129	62.39
545.466	62.42
545.803	62.36
546.14	62.36
546.477	62.39
546.814	62.46
547.151	62.29
547.488	62.46
547.825	62.41
548.162	62.46
548.499	62.54
548.835	62.74
549.172	62.71
549.509	62.79
549.845	62.82
550.182	62.78
550.518	62.84
550.855	62.88
551.191	62.98
551.528	63.15
551.864	63.24
552.2	63.2
552.537	63.25
552.873	63.31
553.209	63.45
553.545	63.41
553.881	63.39
554.217	63.44
554.553	63.78
554.889	63.99
555.225	63.92
555.561	64.01
555.896	63.98
556.232	64.13
556.568	64.27
556.903	64.35
557.239	64.28
557.575	64.42
557.91	64.5
558.245	64.49
558.581	64.62
558.916	64.86
559.252	64.9
559.587	64.97
559.922	64.9
560.257	64.93
560.592	65.13
560.928	65.2
561.263	65.32
561.598	65.29
561.933	65.35
562.267	65.65
562.602	65.86
562.937	65.97
563.272	66.1
563.607	66.06
563.941	66.38
564.276	66.36
564.611	66.58
564.945	66.75
565.28	66.85
565.614	66.67
565.949	66.66
566.283	66.6
566.617	66.8
566.951	67
567.286	67.1
567.62	67.23
567.954	67.24
568.288	67.39
568.622	67.28
568.956	67.21
569.29	67.27
569.624	67.12
569.958	67.17
570.292	67.24
570.626	67.21
570.959	67.2
571.293	67.05
571.627	67.14
571.96	67.16
572.294	67.04
572.627	67.1
572.961	67.12
573.294	67.07
573.627	67.15
573.961	67.31
574.294	67.41
574.627	67.6
574.961	67.59
575.294	67.52
575.627	67.62
575.96	67.56
576.293	67.35
576.626	67.32
576.959	67.34
577.292	67.4
577.624	67.29
577.957	67.37
578.29	67.39
578.623	67.47
578.955	67.41
579.288	67.35
579.62	67.37
579.953	67.09
580.285	67.2
580.618	67.27
580.95	67.25
581.282	67.32
581.615	67.39
581.947	67.22
582.279	67.28
582.611	67.2
582.943	67.06
583.275	67.08
583.607	67.13
583.939	66.93
584.271	66.91
584.603	67.16
584.935	67.08
585.267	67.08
585.598	67.21
585.93	67.41
586.262	67.45
586.593	67.44
586.925	67.32
587.256	67.26
587.588	67.33
587.919	67.48
588.25	67.76
588.582	67.74
588.913	67.77
589.244	67.83
589.575	67.75
589.907	67.64
590.238	67.8
590.569	67.74
590.9	67.88
591.231	67.92
591.562	67.8
591.892	67.76
592.223	67.86
592.554	68.12
592.885	68.06
593.215	68.15
593.546	68.06
593.877	67.94
594.207	67.88
594.538	67.85
594.868	67.86
595.198	67.87
595.529	67.97
595.859	67.91
596.189	67.93
596.52	68.05
596.85	68.21
597.18	68.16
597.51	68.22
597.84	68.12
598.17	68.28
598.5	68.22
598.83	68.22
599.16	68.3
599.489	68.32
599.819	68.41
600.149	68.28
600.479	68.18
600.808	67.89
601.138	67.92
601.467	67.92
601.797	68.13
602.126	68.17
602.456	68.14
602.785	68.22
603.114	68.18
603.443	68.23
603.773	68.28
604.102	68.38
604.431	68.27
604.76	68.02
605.089	67.79
605.418	67.71
605.747	67.56
606.076	67.66
606.405	67.46
606.733	67.51
607.062	67.51
607.391	67.19
607.72	67.1
608.048	67.12
608.377	67.2
608.705	67.34
609.034	67.32
609.362	67.26
609.69	67.32
610.019	67.18
610.347	67.01
610.675	67.04
611.004	67
611.332	67.07
611.66	67.17
611.988	67.06
612.316	67.22
612.644	67.22
612.972	67.35
613.3	67.44
613.627	67.41
613.955	67.48
614.283	67.27
614.611	67.24
614.938	67.38
615.266	67.43
615.593	67.75
615.921	67.75
616.248	67.73
616.576	67.7
616.903	67.69
617.23	67.61
617.558	67.74
617.885	67.59
618.212	67.58
618.539	67.7
618.866	67.48
619.193	67.37
619.52	67.14
619.847	66.95
620.174	66.94
620.501	66.52
620.828	66.56
621.155	66.49
621.481	66.37
621.808	66.6
622.135	66.44
622.461	66.46
622.788	66.64
623.114	66.6
623.441	66.16
623.767	65.96
624.093	65.9
624.42	65.4
624.746	65.65
625.072	65.68
625.398	66.26
625.725	66.34
626.051	66.4
626.377	66.49
626.703	66.34
627.029	66.73
627.354	66.86
627.68	66.57
628.006	66.69
628.332	67.02
628.658	67.03
628.983	66.92
629.309	66.86
629.634	66.74
629.96	66.65
630.285	66.65
630.611	66.68
630.936	66.99
631.262	67.23
631.587	67.63
631.912	67.93
632.237	68.17
632.562	68.88
632.887	68.82
633.213	68.43
633.538	68.61
633.863	68.47
634.187	68.14
634.512	68.06
634.837	67.97
635.162	67.31
635.487	66.73
635.811	67.43
636.136	67.6
636.461	67.39
636.785	67.63
637.11	67.98
637.434	67.92
637.758	68.17
638.083	68.02
638.407	68.34
638.731	68.07
639.056	67.13
639.38	66.75
639.704	67.21
640.028	67.27
640.352	67.18
640.676	67.32
641	67.07
641.324	67.33
641.648	66.58
641.972	66.33
642.295	66.27
642.619	66.88
642.943	66.67
643.266	66.89
643.59	67.35
643.913	67.26
644.237	67
644.56	66.59
644.884	66.81
645.207	66.64
645.53	66.43
645.854	66.81
646.177	66.51
646.5	66.16
646.823	66.2
647.146	66.71
647.469	66.68
647.792	66.14
648.115	66.26
648.438	66.6
648.761	68.66
649.084	69.44
649.406	69.46
649.729	68.76
650.052	68.45
650.374	68.41
650.697	68.12
651.019	68.33
651.342	68.31
651.664	68.41
651.987	68.37
652.309	68.36
652.631	68.43
652.953	68.35
653.276	68.2
653.598	68.27
653.92	68.08
654.242	68.31
654.564	68.55
654.886	68.6
655.208	68.51
655.53	68.37
655.851	68.43
656.173	68.33
656.495	68.36
656.816	67.35
657.138	66.63
657.46	65.62
657.781	65.58
658.103	65.68
658.424	65.93
658.746	65.87
659.067	64.9
659.388	64.67
659.709	63.71
660.031	63.16
660.352	63.1
660.673	62.31
660.994	62.31
661.315	62.94
661.636	63.48
661.957	63.71
662.278	63.59
662.599	63.14
662.919	62.46
663.24	62.72
663.561	62.72
663.881	62.28
664.202	61.52
664.523	60.02
664.843	60.27
665.164	59.82
665.484	60.09
665.804	59.55
666.125	59.83
666.445	59.42
666.765	59.88
667.085	60.66
667.405	60.56
667.726	61.04
668.046	61.14
668.366	60.9
668.686	61.56
669.005	60.73
669.325	60.57
669.645	59.72
669.965	59.12
670.285	58.7
670.604	58.34
670.924	59.05
671.243	58.82
671.563	58.79
671.882	58.31
672.202	58.57
672.521	59.94
672.841	59.11
673.16	58.79
673.479	58.65
673.798	58.82
674.117	58.63
674.437	58.83
674.756	58.52
675.075	58.63
675.394	58.42
675.713	58.25
676.031	58.88
676.35	59.51
676.669	59.54
676.988	61.34
677.306	60.82
677.625	61.52
677.944	61.93
678.262	62.33
678.581	62.58
678.899	62.62
679.218	63.04
679.536	63.18
679.854	63.99
680.172	63.54
680.491	62.58
680.809	63.25
681.127	63.86
681.445	64.06
681.763	64.23
682.081	63.58
682.399	63.61
682.717	63.75
683.035	63.56
683.352	63.9
683.67	63.23
683.988	63.15
684.306	62.82
684.623	62.72
684.941	61.74
685.258	62.05
685.576	62.09
685.893	62.7
686.211	62.3
686.528	61.79
686.845	62.08
687.162	61.99
687.48	61.84
687.797	61.35
688.114	61.6
688.431	61.66
688.748	61.42
689.065	60.62
689.382	60.82
689.699	61.35
690.015	62.27
690.332	63.25
690.649	63.97
690.966	63.8
691.282	64.67
691.599	65.92
691.915	65.67
692.232	65.47
692.548	65.47
692.865	65.38
693.181	65.65
693.497	65.2
693.813	64.7
694.13	65.06
694.446	65.86
694.762	66.45
695.078	66.35
695.394	67.18
695.71	67.39
696.026	66.75
696.342	66.78
696.658	68.01
696.973	70.39
697.289	70.16
697.605	69.51
697.92	70.04
698.236	68.99
698.551	68.42
698.867	68.84
699.182	69.39
699.498	69.27
699.813	70.7
700.128	71.68
700.444	72.28
700.759	72.05
701.074	71.57
701.389	72.29
701.704	71.75
702.019	70.79
702.334	71.8
702.649	70.96
702.964	71.48
703.279	71.29
703.594	71.85
703.908	73.12
704.223	73.7
704.538	71.48
704.852	69.56
705.167	68.72
705.481	68.35
705.796	67.37
706.11	67.56
706.425	67.55
706.739	68.16
707.053	67.45
707.368	67.56
707.682	67.07
707.996	66.33
708.31	66.02
708.624	66.55
708.938	66.94
709.252	65.97
709.566	66.12
709.88	67.16
710.193	65.73
710.507	65.97
710.821	66.22
711.135	65.39
711.448	64.82
711.762	64.26
712.075	63.8
712.389	65.71
712.702	65.86
713.015	66.87
713.329	67.79
713.642	68.53
713.955	68.61
714.269	68.66
714.582	68.41
714.895	68.54
715.208	68.19
715.521	68.59
715.834	69.8
716.147	69.86
716.459	69.36
716.772	68.57
717.085	68.72
717.398	68.59
717.71	67.74
718.023	67.96
718.336	67.29
718.648	65.92
718.961	64.76
719.273	64.54
719.585	64.56
719.898	64.95
720.21	63.95
720.522	63.46
720.834	63.68
721.147	62.89
721.459	61.59
721.771	62.45
722.083	63.08
722.395	63.82
722.707	62.6
723.019	62.43
723.33	60.35
723.642	59.81
723.954	59.18
724.265	59.46
724.577	59.25
724.889	59.59
725.2	59.73
725.512	61.12
725.823	60.82
726.135	61.31
726.446	61.83
726.757	63.19
727.068	64.27
727.38	65.47
727.691	65.48
728.002	66.39
728.313	66.22
728.624	65.57
728.935	64.76
729.246	65.49
729.557	65.05
729.867	64.52
730.178	63.38
730.489	65.35
730.8	65.42
731.11	66.79
731.421	65.52
731.731	65.4
732.042	65.18
732.352	65.06
732.663	64.44
732.973	64.38
733.283	64.32
733.594	64.78
733.904	65.42
734.214	64.71
734.524	65.1
734.834	65.7
735.144	64.91
735.454	65.33
735.764	65.79
736.074	66.82
736.384	66.71
736.694	68.21
737.003	68.01
737.313	67.95
737.623	68.01
737.932	68.87
738.242	67.82
738.551	68.03
738.861	67.04
739.17	67.48
739.479	67.31
739.789	68
740.098	69.09
740.407	70.16
740.716	71.92
741.025	71.99
741.334	71.2
741.643	70.68
741.952	71.13
742.261	69.39
742.57	67.88
742.879	68.35
743.188	66.04
743.497	63.14
743.805	61.63
744.114	63.18
744.422	60.84
744.731	62.86
745.04	61.21
745.348	63.15
745.656	63.29
745.965	63.17
746.273	62.67
746.581	64.39
746.889	66.69
747.198	67.79
747.506	66.97
747.814	68.13
748.122	66.46
748.43	62.88
748.738	60.46
749.046	62.72
749.353	61.72
749.661	62.23
749.969	65.84
750.277	63.23
750.584	62.55
750.892	64.84
751.199	65.41
751.507	66.67
751.814	66.62
752.122	68.11
752.429	66.88
752.736	68.16
753.044	64.5
753.351	64.02
753.658	65.08
753.965	65.35
754.272	64.26
754.579	64.94
754.886	65.35
755.193	65.16
755.5	62.22
755.807	63.55
756.114	64.88
756.42	66.25
756.727	63.85
757.034	65.35
757.34	66.67
757.647	64.94
757.953	65.04
758.26	64.71
758.566	64.51
758.872	65.06
759.179	65.3
759.485	62.35
759.791	61.57
760.097	60.12
760.403	58.08
760.709	59.43
761.015	59.1
761.321	57.2
761.627	58.04
761.933	56.48
762.239	54.63
762.545	51.25
762.851	51.54
763.156	51.64
763.462	53.08
763.767	53.06
764.073	52.4
764.378	53.17
764.684	50.06
764.989	49.82
765.295	50.3
765.6	53.65
765.905	55.66
766.21	51.86
766.515	49.48
766.821	47.87
767.126	50.91
767.431	53.8
767.736	56.78
768.041	56.15
768.345	53.87
768.65	50.46
768.955	42.48
769.26	38.72
769.564	44.61
769.869	44.76
770.174	51.15
770.478	52.14
770.783	54.02
771.087	55.33
771.391	54.7
771.696	55.62
772	61.87
772.304	67.89
772.608	68.74
772.913	75.11
773.217	69.76
773.521	66.39
773.825	74.07
774.129	77.09
774.433	77.75
774.736	70.48
775.04	67.19
775.344	60.79
775.648	61.47
775.951	63.93
776.255	71.25
776.559	78.25
776.862	85.24
777.166	87.61
777.469	85.18
777.772	80.46
778.076	77.91
778.379	76.58
778.682	63.04
778.985	62.3
779.289	58.88
779.592	54.66
779.895	56.75
780.198	56.34
780.501	52.62
780.804	53.75
781.106	48.87
781.409	40.16
781.712	39.59
782.015	29.15
782.317	30.5
782.62	32.73
782.923	39.48
783.225	31.59
783.527	43.55
783.83	27.71
784.132	42.37
784.435	27.84
784.737	15.37
785.039	24.83
785.341	25.59
785.643	24.82
785.945	26.13
786.248	40.17
786.55	48.81
786.851	52.65
787.153	43.03
787.455	34.28
787.757	41.25
788.059	35.13
788.36	25.63
788.662	35.03
788.964	43.24
789.265	42.16
789.567	61.91
789.868	72.28
790.17	66.28
790.471	66.76
790.772	75.18
791.074	60.56
791.375	70.93
791.676	56.27
791.977	64.67
792.278	78.94
792.579	73.12
792.88	73.51
793.181	73.91
793.482	70.9
793.783	50.9
794.083	46.67
794.384	61.42
794.685	67.33
794.986	74.11
795.286	43.61
795.587	61.25
795.887	89.31
796.188	84.43
796.488	78.84
796.788	74.12
797.089	58.51
797.389	54.98
797.689	51.4
797.989	47.84
798.289	50.17
798.589	63.47
798.889	65.03
799.189	67.71
799.489	72.12
799.789	58.99
800.089	52.91
800.389	55.81
800.688	46.37
800.988	54
801.288	68.47
801.587	58.58
801.887	19.53
802.186	5.25
802.486	15.33
802.785	19.47
803.085	-6.45
803.384	-34.56
803.683	-70.1
803.982	-88.12
804.281	-138.4
804.58	-99.15
804.879	-281.89
805.178	-358.58
805.477	-190.41
805.776	-177.6
806.075	-279.66
806.374	-210.17
806.673	-233.36
806.971	-397.43
807.27	-2884.44
807.569	-4420.69
807.867	-3231.93
808.166	1529.81
808.464	1499.66
808.763	574.29
809.061	428.72
809.359	444.79
809.658	389.79
809.956	298.26
810.254	235.11
810.552	227.86
810.85	206.15
811.148	214.97
811.446	194.7
811.744	183.65
812.042	177.22
812.34	168.1
812.638	177.28
812.935	168.84
813.233	182.22
813.531	278.74
813.828	234.31
814.126	231.44
814.423	261.07
814.721	315.48
815.018	215.79
815.316	204.75
815.613	234.1
815.91	230.43
816.207	194.28
816.504	182.61
816.802	283.49
817.099	234.31
817.396	395.48
817.693	539.87
817.99	701.39
818.286	536.71
818.583	-676.48
818.88	501.78
819.177	299.42
819.473	394.58
819.77	367.69
820.067	759.2
820.363	1936.99
820.66	-536.61
820.956	247.28
821.252	-1164.1
821.549	810.22
821.845	1710.74
822.141	-1086.23
822.437	-291.94
822.734	-542.12
823.03	940.83
823.326	184.14
823.622	441.01
823.918	2789.47
824.213	440.57
824.509	195.96
824.805	171.79
825.101	118.88
825.397	126.52
825.692	198.46
825.988	118.81
826.283	261.26
826.579	561.1
826.874	-2848.54
827.17	-7810.26
827.465	844.71
827.76	486.37
828.056	566.39
828.351	1750.2
828.646	456.83
828.941	569.11
829.236	501.07
829.531	356.39
829.826	258.4
830.121	277.72
830.416	328.36
830.711	309.84
831.006	322.65
831.3	324.03
831.595	254.96
831.89	233.74
832.184	177.3
832.479	169.68
832.773	177.33
833.068	158.8
833.362	161.99
833.656	141.54
833.951	120.97
834.245	124.66
834.539	144.72
834.833	158.15
835.127	129.53
835.421	113.89
835.715	116.44
836.009	132.01
836.303	122.14
836.597	105.8
836.891	98.48
837.185	104.05
837.478	91.51
837.772	101.36
838.066	113.66
838.359	89.99
838.653	108.44
838.946	111.15
839.24	135.61
839.533	153.41
839.826	226.57
840.119	238.42
840.413	195.62
840.706	224.84
840.999	151.21
841.292	179.2
841.585	162.2
841.878	139.48
842.171	143.13
842.464	223.88
842.757	202.28
843.049	175.9
843.342	151.83
843.635	164.78
843.927	206.04
844.22	241.26
844.513	361.48
844.805	723.85
845.098	882.35
845.39	916.24
845.682	966.44
845.975	1553.96
846.267	553.59
846.559	416.48
846.851	385.78
847.143	312.98
847.435	389.4
847.727	422.55
848.019	639.33
848.311	1579.59
848.603	2859.23
848.895	-1890.52
849.186	-504.66
849.478	-26321.74
849.77	1898.48
850.061	2934.76
850.353	-5504.2
850.645	-1000
850.936	-891.61
851.227	-98371.43
851.519	-1987.78
851.81	1310.02
852.101	965.71
852.393	3025.81
852.684	-4263.58
852.975	-1327.03
853.266	-547.51
853.557	-468.59
853.848	-237.92
854.139	-141.67
854.43	-150.91
854.72	-263.57
855.011	-411.74
855.302	-387.36
855.593	-442.26
855.883	-596.37
856.174	-457.01
856.464	-1568.31
856.755	1871.35
857.045	922.55
857.336	888.09
857.626	-3280.46
857.916	2530.58
858.206	-12617.39
858.497	-254.52
858.787	-409.19
859.077	-588.57
859.367	-215.34
859.657	-352.83
859.947	-1459.88
860.237	2200
860.527	369.02
860.816	322.83
861.106	194.06
861.396	196.2
861.685	317.13
861.975	443.76
862.265	517.85
862.554	380.94
862.844	-1340.98
863.133	-1206.84
863.422	-1550.61
863.712	-632.46
864.001	-250.25
864.29	-253.08
864.579	-264.14
864.868	-396.86
865.157	-393.29
865.446	-564.53
865.735	-872.83
866.024	-714.85
866.313	-374.35
866.602	-625.71
866.891	-541.76
867.179	-340.7
867.468	-277.81
