Data from T2_Reflection__81__19-43-40-181.txt Node

Date: Fri Jun 04 19:43:40 CEST 2021
User: mabdelazizm
Spectrometer: FLMS18565
Trigger mode: 0
Integration Time (sec): 2.000000E0
Scans to average: 1
Electric dark correction enabled: true
Nonlinearity correction enabled: false
Boxcar width: 12
XAxis mode: Wavelengths
Number of Pixels in Spectrum: 2048
>>>>>Begin Spectral Data<<<<<
179.071	-5.8
179.452	1.95
179.833	-38.54
180.214	-21.15
180.595	-88.7
180.977	-93.92
181.358	-24.61
181.739	-37.43
182.12	68.15
182.501	39.86
182.882	41.89
183.262	-122.86
183.643	11.6
184.024	-0.42
184.405	-20.34
184.786	-17.68
185.166	-27.98
185.547	-16.29
185.927	-0.39
186.308	-3.88
186.689	16.55
187.069	17.38
187.449	9.46
187.83	8.34
188.21	10.05
188.59	9.99
188.971	10.61
189.351	11.13
189.731	7.9
190.111	16.91
190.491	10.49
190.871	10.2
191.251	15.15
191.631	15.18
192.011	14.58
192.391	14.39
192.771	18.27
193.151	16.64
193.531	18.94
193.91	22.12
194.29	21.87
194.67	25.94
195.049	21.55
195.429	19.9
195.808	20.05
196.188	14.54
196.567	12.69
196.946	14.28
197.326	15.73
197.705	14.89
198.084	12.6
198.464	9.8
198.843	9.22
199.222	11.28
199.601	8.28
199.98	9.31
200.359	8.95
200.738	8.82
201.117	4.15
201.496	2.12
201.875	0.97
202.254	0.44
202.632	0.44
203.011	-0.59
203.39	-0.74
203.768	-0.66
204.147	-1.6
204.525	-1.41
204.904	-3.95
205.282	-0.91
205.661	-3.24
206.039	-0.08
206.418	0.31
206.796	2.98
207.174	3.1
207.552	5.64
207.931	6.84
208.309	6.7
208.687	5.06
209.065	6.22
209.443	6.34
209.821	3.93
210.199	1.37
210.577	-0.14
210.954	3.97
211.332	3.63
211.71	1.46
212.088	0.65
212.465	1.27
212.843	2.22
213.221	2.26
213.598	3.29
213.976	1.65
214.353	4.32
214.731	1.1
215.108	4.14
215.485	2.86
215.863	2.14
216.24	-0.3
216.617	-0.21
216.994	-1.06
217.371	-0.9
217.749	-0.81
218.126	-0.81
218.503	-0.78
218.88	-0.72
219.256	0.2
219.633	-0.31
220.01	0.81
220.387	0.5
220.764	0.55
221.14	2.43
221.517	1.14
221.894	0.52
222.27	0.16
222.647	-0.25
223.023	-0.92
223.4	-0.73
223.776	-0.53
224.153	-0.81
224.529	-0.8
224.905	-0.39
225.282	-0.5
225.658	-0.48
226.034	-0.72
226.41	-0.76
226.786	-0.89
227.162	-0.39
227.538	-0.5
227.914	-0.75
228.29	-0.99
228.666	-0.89
229.042	-0.74
229.418	-0.32
229.793	-0.54
230.169	-0.41
230.545	-0.8
230.92	-0.45
231.296	-0.52
231.672	-0.59
232.047	-0.6
232.422	-0.52
232.798	-0.41
233.173	-0.5
233.549	-0.35
233.924	-0.3
234.299	-0.31
234.674	-0.33
235.05	-0.32
235.425	-0.28
235.8	-0.26
236.175	-0.12
236.55	-0.14
236.925	-0.09
237.3	0.06
237.675	0.16
238.049	0.06
238.424	0.02
238.799	0.05
239.174	0.15
239.548	0.14
239.923	0.2
240.297	0.2
240.672	0.28
241.046	0.37
241.421	0.45
241.795	0.35
242.17	0.33
242.544	0.31
242.918	0.28
243.293	0.23
243.667	0.18
244.041	0.23
244.415	0.29
244.789	0.28
245.163	0.29
245.537	0.27
245.911	0.3
246.285	0.28
246.659	0.24
247.033	0.25
247.406	0.28
247.78	0.32
248.154	0.19
248.528	0.2
248.901	0.21
249.275	0.18
249.648	0.21
250.022	0.2
250.395	0.14
250.769	0.12
251.142	0.21
251.515	0.25
251.888	0.28
252.262	0.32
252.635	0.33
253.008	0.38
253.381	0.39
253.754	0.4
254.127	0.41
254.5	0.4
254.873	0.35
255.246	0.29
255.619	0.32
255.992	0.35
256.364	0.32
256.737	0.31
257.11	0.33
257.483	0.38
257.855	0.37
258.228	0.35
258.6	0.35
258.973	0.39
259.345	0.42
259.718	0.39
260.09	0.34
260.462	0.28
260.834	0.29
261.207	0.27
261.579	0.27
261.951	0.28
262.323	0.23
262.695	0.22
263.067	0.23
263.439	0.26
263.811	0.3
264.183	0.33
264.555	0.38
264.927	0.35
265.298	0.35
265.67	0.3
266.042	0.27
266.413	0.24
266.785	0.21
267.156	0.19
267.528	0.2
267.899	0.2
268.271	0.17
268.642	0.11
269.013	0.13
269.385	0.18
269.756	0.22
270.127	0.14
270.498	0.13
270.87	0.11
271.241	0.09
271.612	0.09
271.983	0.1
272.354	0.07
272.724	0.04
273.095	0.01
273.466	-0.04
273.837	-0.05
274.208	-0.08
274.578	-0.13
274.949	-0.07
275.32	-0.01
275.69	-0.03
276.061	-0.03
276.431	-0.07
276.802	-0.04
277.172	-0.04
277.542	-0.1
277.913	-0.06
278.283	-0.03
278.653	-0.05
279.023	-0.08
279.394	-0
279.764	0
280.134	0.03
280.504	0.03
280.874	0.01
281.244	-0.06
281.614	-0.1
281.983	-0.16
282.353	-0.11
282.723	-0.07
283.093	-0.08
283.462	-0.05
283.832	-0.03
284.202	-0.02
284.571	-0.08
284.941	-0.03
285.31	0.02
285.68	0.05
286.049	-0.02
286.418	-0
286.788	0.08
287.157	0.05
287.526	0.02
287.895	0.04
288.264	0.07
288.633	-0.01
289.002	-0.03
289.371	-0.02
289.74	-0.04
290.109	-0.03
290.478	-0.03
290.847	0.05
291.216	0.1
291.585	0
291.953	-0.04
292.322	-0.04
292.691	-0.08
293.059	-0.14
293.428	-0.15
293.796	-0.12
294.165	-0.18
294.533	-0.25
294.901	-0.28
295.27	-0.24
295.638	-0.26
296.006	-0.35
296.374	-0.33
296.743	-0.32
297.111	-0.38
297.479	-0.41
297.847	-0.34
298.215	-0.36
298.583	-0.38
298.95	-0.39
299.318	-0.4
299.686	-0.41
300.054	-0.48
300.422	-0.5
300.789	-0.5
301.157	-0.48
301.525	-0.47
301.892	-0.44
302.26	-0.39
302.627	-0.34
302.994	-0.32
303.362	-0.27
303.729	-0.21
304.097	-0.19
304.464	-0.23
304.831	-0.24
305.198	-0.23
305.565	-0.26
305.932	-0.27
306.299	-0.27
306.666	-0.3
307.033	-0.33
307.4	-0.29
307.767	-0.35
308.134	-0.36
308.501	-0.34
308.867	-0.32
309.234	-0.3
309.601	-0.29
309.967	-0.3
310.334	-0.26
310.701	-0.27
311.067	-0.26
311.433	-0.26
311.8	-0.38
312.166	-0.36
312.533	-0.44
312.899	-0.46
313.265	-0.49
313.631	-0.42
313.997	-0.37
314.363	-0.37
314.729	-0.38
315.096	-0.4
315.461	-0.37
315.827	-0.33
316.193	-0.3
316.559	-0.29
316.925	-0.24
317.291	-0.22
317.656	-0.19
318.022	-0.18
318.388	-0.14
318.753	-0.18
319.119	-0.18
319.484	-0.15
319.85	-0.19
320.215	-0.19
320.581	-0.2
320.946	-0.16
321.311	-0.19
321.676	-0.16
322.042	-0.18
322.407	-0.18
322.772	-0.18
323.137	-0.18
323.502	-0.14
323.867	-0.12
324.232	-0.16
324.597	-0.18
324.962	-0.16
325.327	-0.16
325.691	-0.16
326.056	-0.14
326.421	-0.13
326.785	-0.18
327.15	-0.2
327.514	-0.27
327.879	-0.22
328.243	-0.2
328.608	-0.22
328.972	-0.17
329.337	-0.19
329.701	-0.17
330.065	-0.15
330.429	-0.16
330.794	-0.15
331.158	-0.16
331.522	-0.2
331.886	-0.25
332.25	-0.29
332.614	-0.32
332.978	-0.37
333.342	-0.34
333.705	-0.33
334.069	-0.4
334.433	-0.46
334.797	-0.48
335.16	-0.58
335.524	-0.58
335.887	-0.55
336.251	-0.53
336.614	-0.48
336.978	-0.49
337.341	-0.53
337.705	-0.55
338.068	-0.52
338.431	-0.52
338.794	-0.55
339.158	-0.54
339.521	-0.57
339.884	-0.62
340.247	-0.58
340.61	-0.51
340.973	-0.51
341.336	-0.49
341.699	-0.56
342.062	-0.55
342.424	-0.52
342.787	-0.5
343.15	-0.46
343.512	-0.44
343.875	-0.44
344.238	-0.36
344.6	-0.37
344.963	-0.41
345.325	-0.4
345.688	-0.44
346.05	-0.46
346.412	-0.38
346.775	-0.42
347.137	-0.45
347.499	-0.47
347.861	-0.43
348.223	-0.42
348.585	-0.4
348.947	-0.39
349.309	-0.39
349.671	-0.41
350.033	-0.42
350.395	-0.41
350.757	-0.37
351.118	-0.41
351.48	-0.44
351.842	-0.5
352.203	-0.45
352.565	-0.52
352.927	-0.51
353.288	-0.53
353.65	-0.54
354.011	-0.51
354.372	-0.43
354.734	-0.4
355.095	-0.39
355.456	-0.45
355.817	-0.41
356.179	-0.41
356.54	-0.36
356.901	-0.39
357.262	-0.45
357.623	-0.47
357.984	-0.42
358.345	-0.43
358.705	-0.43
359.066	-0.41
359.427	-0.44
359.788	-0.48
360.148	-0.4
360.509	-0.37
360.87	-0.31
361.23	-0.4
361.591	-0.33
361.951	-0.36
362.312	-0.34
362.672	-0.35
363.032	-0.32
363.393	-0.39
363.753	-0.44
364.113	-0.44
364.473	-0.45
364.833	-0.45
365.193	-0.49
365.553	-0.55
365.913	-0.6
366.273	-0.63
366.633	-0.61
366.993	-0.71
367.353	-0.78
367.713	-0.79
368.072	-0.82
368.432	-0.78
368.792	-0.78
369.151	-0.81
369.511	-0.81
369.87	-0.82
370.23	-0.72
370.589	-0.67
370.949	-0.65
371.308	-0.71
371.667	-0.71
372.027	-0.72
372.386	-0.69
372.745	-0.68
373.104	-0.72
373.463	-0.68
373.822	-0.7
374.181	-0.65
374.54	-0.6
374.899	-0.52
375.258	-0.51
375.617	-0.53
375.975	-0.48
376.334	-0.46
376.693	-0.4
377.052	-0.38
377.41	-0.42
377.769	-0.37
378.127	-0.34
378.486	-0.34
378.844	-0.39
379.202	-0.44
379.561	-0.55
379.919	-0.59
380.277	-0.53
380.636	-0.5
380.994	-0.54
381.352	-0.57
381.71	-0.53
382.068	-0.47
382.426	-0.46
382.784	-0.44
383.142	-0.49
383.5	-0.54
383.857	-0.57
384.215	-0.55
384.573	-0.54
384.931	-0.5
385.288	-0.56
385.646	-0.64
386.003	-0.62
386.361	-0.57
386.718	-0.64
387.076	-0.62
387.433	-0.65
387.791	-0.65
388.148	-0.66
388.505	-0.65
388.862	-0.6
389.22	-0.58
389.577	-0.55
389.934	-0.53
390.291	-0.5
390.648	-0.52
391.005	-0.58
391.362	-0.65
391.718	-0.7
392.075	-0.77
392.432	-0.77
392.789	-0.78
393.145	-0.75
393.502	-0.78
393.859	-0.78
394.215	-0.67
394.572	-0.67
394.928	-0.66
395.285	-0.69
395.641	-0.63
395.997	-0.62
396.354	-0.6
396.71	-0.55
397.066	-0.52
397.422	-0.44
397.778	-0.46
398.134	-0.47
398.491	-0.6
398.846	-0.62
399.202	-0.62
399.558	-0.68
399.914	-0.66
400.27	-0.63
400.626	-0.6
400.981	-0.51
401.337	-0.46
401.693	-0.43
402.048	-0.43
402.404	-0.4
402.759	-0.43
403.115	-0.48
403.47	-0.52
403.826	-0.54
404.181	-0.55
404.536	-0.62
404.892	-0.72
405.247	-0.72
405.602	-0.78
405.957	-0.8
406.312	-0.81
406.667	-0.77
407.022	-0.74
407.377	-0.7
407.732	-0.69
408.087	-0.71
408.442	-0.7
408.796	-0.68
409.151	-0.63
409.506	-0.59
409.86	-0.61
410.215	-0.69
410.57	-0.74
410.924	-0.67
411.279	-0.66
411.633	-0.69
411.987	-0.63
412.342	-0.53
412.696	-0.5
413.05	-0.45
413.404	-0.41
413.758	-0.27
414.113	-0.23
414.467	-0.16
414.821	-0.17
415.175	-0.21
415.529	-0.28
415.882	-0.27
416.236	-0.23
416.59	-0.25
416.944	-0.23
417.298	-0.11
417.651	-0.15
418.005	-0.14
418.358	-0.14
418.712	-0.11
419.065	-0.11
419.419	-0.12
419.772	-0.23
420.126	-0.16
420.479	-0.05
420.832	-0.09
421.185	-0.02
421.539	-0.1
421.892	-0.1
422.245	-0.03
422.598	-0.04
422.951	-0.09
423.304	-0.15
423.657	-0.09
424.01	-0.01
424.363	0.05
424.715	0.07
425.068	0.05
425.421	0.08
425.773	0.01
426.126	0.06
426.479	0.04
426.831	0.02
427.184	0.02
427.536	0.05
427.889	0.05
428.241	0.13
428.593	0.19
428.945	0.19
429.298	0.16
429.65	0.17
430.002	0.07
430.354	0.19
430.706	0.22
431.058	0.21
431.41	0.11
431.762	0.07
432.114	0.12
432.466	0.17
432.817	0.15
433.169	0.23
433.521	0.19
433.872	0.22
434.224	0.15
434.576	0.14
434.927	0
435.279	-0.05
435.63	0.02
435.981	0.08
436.333	0.11
436.684	0.15
437.035	0.16
437.387	0.07
437.738	0.01
438.089	-0.02
438.44	-0.05
438.791	-0.06
439.142	-0.09
439.493	-0.13
439.844	-0.09
440.195	0.03
440.545	0.13
440.896	0.12
441.247	0.08
441.598	-0.07
441.948	-0.17
442.299	-0.25
442.649	-0.27
443	-0.22
443.35	-0.17
443.701	-0.13
444.051	-0.07
444.401	-0.16
444.752	-0.26
445.102	-0.32
445.452	-0.36
445.802	-0.43
446.152	-0.41
446.502	-0.44
446.852	-0.48
447.202	-0.47
447.552	-0.46
447.902	-0.48
448.252	-0.52
448.602	-0.06
448.952	-0.1
449.301	-0.13
449.651	-0.1
450.001	-0.1
450.35	-0.05
450.7	-0
451.049	0.08
451.399	0.08
451.748	0.05
452.097	0.16
452.447	0.09
452.796	0.19
453.145	0.25
453.494	0.21
453.843	0.33
454.193	0.35
454.542	0.33
454.891	0.41
455.239	0.39
455.588	0.49
455.937	0.5
456.286	0.46
456.635	0.43
456.984	0.44
457.332	-0.06
457.681	-0.12
458.03	-0.07
458.378	-0.13
458.727	-0.19
459.075	-0.13
459.423	-0.01
459.772	0.02
460.12	-0.05
460.468	0.02
460.817	0.11
461.165	0.16
461.513	0.15
461.861	0.16
462.209	0.25
462.557	0.26
462.905	0.29
463.253	0.41
463.601	0.49
463.949	0.59
464.297	0.55
464.644	0.66
464.992	0.64
465.34	0.75
465.687	0.78
466.035	0.63
466.383	0.74
466.73	0.71
467.078	0.73
467.425	0.76
467.772	0.82
468.12	0.72
468.467	0.63
468.814	0.78
469.161	0.86
469.508	0.8
469.856	0.85
470.203	0.73
470.55	0.62
470.897	0.65
471.243	0.61
471.59	0.62
471.937	0.6
472.284	0.55
472.631	0.48
472.977	0.55
473.324	0.54
473.671	0.48
474.017	0.48
474.364	0.38
474.71	0.42
475.057	0.39
475.403	0.37
475.749	0.37
476.096	0.39
476.442	0.39
476.788	0.38
477.134	0.46
477.48	0.37
477.826	0.36
478.172	0.29
478.518	0.27
478.864	0.37
479.21	0.48
479.556	0.4
479.902	0.38
480.248	0.42
480.593	0.39
480.939	0.32
481.285	0.35
481.63	0.34
481.976	0.34
482.321	0.44
482.667	0.46
483.012	0.52
483.357	0.63
483.703	0.68
484.048	0.84
484.393	0.93
484.738	0.98
485.084	1.01
485.429	1.08
485.774	1.12
486.119	1.2
486.464	1.28
486.808	1.4
487.153	1.47
487.498	1.58
487.843	1.63
488.188	1.84
488.532	2.04
488.877	2.19
489.222	2.42
489.566	2.7
489.911	3
490.255	3.23
490.6	3.54
490.944	3.8
491.288	4.11
491.633	4.5
491.977	4.8
492.321	5.24
492.665	5.55
493.009	5.95
493.353	6.42
493.697	6.86
494.041	7.34
494.385	7.84
494.729	8.35
495.073	8.87
495.417	9.41
495.76	9.98
496.104	10.6
496.448	11.29
496.791	11.96
497.135	12.65
497.479	13.42
497.822	14.12
498.165	14.94
498.509	15.69
498.852	16.48
499.196	17.25
499.539	18.07
499.882	18.84
500.225	19.66
500.568	20.41
500.911	21.15
501.254	21.92
501.597	22.7
501.94	23.57
502.283	24.39
502.626	25.3
502.969	26.08
503.312	26.88
503.654	27.69
503.997	28.48
504.34	29.33
504.682	30.14
505.025	30.99
505.367	31.85
505.71	32.54
506.052	33.19
506.395	34.02
506.737	34.74
507.079	35.55
507.421	36.37
507.764	37.11
508.106	37.78
508.448	38.57
508.79	39.28
509.132	40.02
509.474	40.64
509.816	41.3
510.158	41.92
510.499	42.42
510.841	43.07
511.183	43.59
511.525	44.24
511.866	44.95
512.208	45.5
512.549	46.01
512.891	46.57
513.232	47.25
513.574	47.8
513.915	48.19
514.256	48.78
514.598	49.43
514.939	49.93
515.28	50.45
515.621	50.96
515.962	51.42
516.303	51.9
516.644	52.42
516.985	52.83
517.326	53.26
517.667	53.7
518.008	54.1
518.349	54.66
518.69	55.25
519.03	55.72
519.371	56.11
519.712	56.42
520.052	56.72
520.393	57.03
520.733	57.41
521.074	57.95
521.414	58.4
521.754	58.74
522.095	59.07
522.435	59.41
522.775	59.74
523.115	60.07
523.455	60.31
523.795	60.55
524.135	60.7
524.475	60.99
524.815	61.29
525.155	61.73
525.495	61.87
525.835	62.09
526.175	62.41
526.514	62.78
526.854	62.85
527.194	62.94
527.533	63.19
527.873	63.36
528.212	63.66
528.552	64.01
528.891	64.28
529.23	64.49
529.57	64.71
529.909	64.95
530.248	64.98
530.587	65.25
530.927	65.43
531.266	65.5
531.605	65.54
531.944	65.69
532.283	65.79
532.621	65.88
532.96	66.08
533.299	66.2
533.638	66.25
533.977	66.46
534.315	66.68
534.654	66.71
534.992	66.79
535.331	66.94
535.67	67.13
536.008	67.27
536.346	67.54
536.685	67.47
537.023	67.53
537.361	67.7
537.7	67.76
538.038	67.68
538.376	67.59
538.714	67.84
539.052	67.8
539.39	67.96
539.728	68.02
540.066	68.1
540.404	68.29
540.741	68.54
541.079	68.66
541.417	68.63
541.755	68.57
542.092	68.6
542.43	68.6
542.767	68.49
543.105	68.43
543.442	68.48
543.78	68.6
544.117	68.5
544.454	68.77
544.792	68.71
545.129	68.97
545.466	68.94
545.803	68.9
546.14	68.96
546.477	69.03
546.814	69.17
547.151	68.96
547.488	69.03
547.825	69.03
548.162	69.15
548.499	69.35
548.835	69.35
549.172	69.3
549.509	69.42
549.845	69.54
550.182	69.65
550.518	69.61
550.855	69.66
551.191	69.89
551.528	69.92
551.864	70.01
552.2	70
552.537	70.19
552.873	69.97
553.209	70.13
553.545	70.03
553.881	70.2
554.217	70.19
554.553	70.5
554.889	70.74
555.225	70.77
555.561	70.96
555.896	71.04
556.232	71.11
556.568	71.32
556.903	71.17
557.239	71.26
557.575	71.22
557.91	71.34
558.245	71.34
558.581	71.48
558.916	71.64
559.252	71.82
559.587	71.82
559.922	71.97
560.257	71.99
560.592	72.1
560.928	72.2
561.263	72.28
561.598	72.24
561.933	72.39
562.267	72.37
562.602	72.45
562.937	72.53
563.272	72.55
563.607	72.59
563.941	72.94
564.276	72.96
564.611	73.13
564.945	73.23
565.28	73.59
565.614	73.4
565.949	73.69
566.283	73.66
566.617	73.79
566.951	74.04
567.286	74.17
567.62	74.16
567.954	74.22
568.288	74.4
568.622	74.36
568.956	74.29
569.29	74.4
569.624	74.36
569.958	74.38
570.292	74.38
570.626	74.54
570.959	74.77
571.293	74.73
571.627	74.82
571.96	74.88
572.294	74.69
572.627	74.8
572.961	74.72
573.294	74.56
573.627	74.56
573.961	74.69
574.294	74.61
574.627	74.78
574.961	74.92
575.294	74.74
575.627	74.88
575.96	74.86
576.293	74.61
576.626	74.57
576.959	74.77
577.292	74.84
577.624	74.72
577.957	74.79
578.29	74.92
578.623	74.97
578.955	74.99
579.288	74.87
579.62	74.9
579.953	74.76
580.285	74.86
580.618	74.99
580.95	74.98
581.282	74.96
581.615	75.18
581.947	75.05
582.279	75.19
582.611	75.23
582.943	75.1
583.275	75.03
583.607	75.24
583.939	75.21
584.271	75.31
584.603	75.65
584.935	75.69
585.267	75.53
585.598	75.71
585.93	75.97
586.262	76.11
586.593	76.14
586.925	76.21
587.256	76.05
587.588	75.94
587.919	76.02
588.25	76.22
588.582	76.28
588.913	76.44
589.244	76.53
589.575	76.82
589.907	76.73
590.238	76.74
590.569	76.68
590.9	76.76
591.231	76.8
591.562	76.7
591.892	76.7
592.223	76.51
592.554	76.6
592.885	76.7
593.215	76.62
593.546	76.66
593.877	76.53
594.207	76.34
594.538	76.27
594.868	76.11
595.198	75.9
595.529	75.97
595.859	75.98
596.189	76.05
596.52	76.14
596.85	76.05
597.18	75.98
597.51	76.02
597.84	75.89
598.17	75.94
598.5	76.13
598.83	76.2
599.16	76.24
599.489	76.29
599.819	76.32
600.149	76.17
600.479	76.09
600.808	75.96
601.138	75.74
601.467	75.73
601.797	75.74
602.126	75.68
602.456	75.86
602.785	75.85
603.114	75.92
603.443	76.19
603.773	76.35
604.102	76.49
604.431	76.23
604.76	76.05
605.089	75.9
605.418	75.72
605.747	75.51
606.076	75.55
606.405	75.53
606.733	75.52
607.062	75.53
607.391	75.3
607.72	75.12
608.048	75.07
608.377	75.02
608.705	75.14
609.034	75.07
609.362	75.14
609.69	75.39
610.019	75.42
610.347	75.54
610.675	75.45
611.004	75.51
611.332	75.59
611.66	75.59
611.988	75.41
612.316	75.47
612.644	75.45
612.972	75.51
613.3	75.77
613.627	75.83
613.955	75.91
614.283	75.78
614.611	75.6
614.938	75.53
615.266	75.52
615.593	75.71
615.921	75.81
616.248	75.8
616.576	75.82
616.903	75.8
617.23	75.88
617.558	75.99
617.885	75.77
618.212	75.59
618.539	75.39
618.866	75.02
619.193	74.87
619.52	74.67
619.847	74.78
620.174	74.7
620.501	74.6
620.828	74.93
621.155	74.84
621.481	74.3
621.808	74.09
622.135	74.19
622.461	74.15
622.788	74.25
623.114	73.81
623.441	73.38
623.767	73.63
624.093	73.62
624.42	73.46
624.746	73.87
625.072	73.83
625.398	73.97
625.725	74.08
626.051	74.22
626.377	74.36
626.703	74.46
627.029	74.66
627.354	74.72
627.68	74.66
628.006	74.3
628.332	74.09
628.658	73.96
628.983	73.6
629.309	73.88
629.634	73.89
629.96	73.82
630.285	73.79
630.611	73.66
630.936	73.87
631.262	74.95
631.587	74.76
631.912	74.48
632.237	74.75
632.562	75.7
632.887	75.37
633.213	75.81
633.538	76.02
633.863	75.9
634.187	75.64
634.512	75.36
634.837	75.25
635.162	75.05
635.487	74.47
635.811	75
636.136	75.3
636.461	75.82
636.785	76
637.11	76.5
637.434	75.99
637.758	76.5
638.083	76.43
638.407	76.64
638.731	76.85
639.056	76.68
639.38	76.02
639.704	76.85
640.028	76.77
640.352	77.03
640.676	76.69
641	76.68
641.324	76.36
641.648	75.8
641.972	75.99
642.295	75.8
642.619	76.11
642.943	76.31
643.266	76.84
643.59	77.27
643.913	76.78
644.237	76.58
644.56	75.99
644.884	75.94
645.207	75.56
645.53	75.45
645.854	75.57
646.177	76.01
646.5	75.94
646.823	76.29
647.146	76.47
647.469	76.7
647.792	76.35
648.115	76.19
648.438	76.06
648.761	78.66
649.084	79.52
649.406	79.5
649.729	78.56
650.052	77.96
650.374	77.71
650.697	77.45
651.019	77.39
651.342	77.24
651.664	77.35
651.987	77.4
652.309	77.4
652.631	77.6
652.953	77.66
653.276	77.45
653.598	77.48
653.92	77.59
654.242	77.55
654.564	77.44
654.886	77.28
655.208	77.28
655.53	77.31
655.851	77.34
656.173	77.44
656.495	77.55
656.816	76.29
657.138	75.17
657.46	73.84
657.781	73.84
658.103	73.94
658.424	74.49
658.746	74.55
659.067	74.24
659.388	74.68
659.709	73.53
660.031	73.19
660.352	72.17
660.673	70.76
660.994	70.36
661.315	71.6
661.636	72.23
661.957	71.83
662.278	72.78
662.599	72.66
662.919	72.16
663.24	72.21
663.561	71.3
663.881	70.97
664.202	70.07
664.523	68.97
664.843	70.21
665.164	70.46
665.484	71.41
665.804	71.28
666.125	70.95
666.445	71.8
666.765	72.21
667.085	72.19
667.405	72.19
667.726	73.14
668.046	73.36
668.366	73.25
668.686	73.83
669.005	73.37
669.325	72.87
669.645	72.71
669.965	71.86
670.285	71.23
670.604	71.07
670.924	72.22
671.243	72.54
671.563	72.95
671.882	73.01
672.202	73.17
672.521	73.78
672.841	72.41
673.16	72.28
673.479	71.52
673.798	71.73
674.117	72.42
674.437	71.62
674.756	72.39
675.075	72.68
675.394	72.16
675.713	71.5
676.031	72.08
676.35	73
676.669	73.56
676.988	74.57
677.306	74.4
677.625	74.92
677.944	75.46
678.262	76.05
678.581	76.55
678.899	75.72
679.218	75.12
679.536	74.52
679.854	74.62
680.172	74.83
680.491	74.09
680.809	74.9
681.127	74.82
681.445	75.36
681.763	75.13
682.081	74.92
682.399	74.38
682.717	73.97
683.035	74.13
683.352	74.03
683.67	74.31
683.988	74.66
684.306	74.44
684.623	74.11
684.941	73.71
685.258	73.66
685.576	73.21
685.893	73.52
686.211	72.93
686.528	72.42
686.845	73.3
687.162	73.09
687.48	73.71
687.797	73.24
688.114	73.37
688.431	74.16
688.748	73.59
689.065	73.47
689.382	73.85
689.699	74.42
690.015	74.53
690.332	75.7
690.649	75.64
690.966	75.64
691.282	76.46
691.599	76.53
691.915	74.87
692.232	75.02
692.548	75.33
692.865	74.93
693.181	74.93
693.497	74.52
693.813	74.46
694.13	74.49
694.446	74.67
694.762	73.98
695.078	73.94
695.394	74.3
695.71	74.49
696.026	74.45
696.342	73.74
696.658	75.04
696.973	76.09
697.289	75.98
697.605	74.69
697.92	74.71
698.236	73.68
698.551	73.11
698.867	72.95
699.182	73.22
699.498	73.18
699.813	75.5
700.128	77.33
700.444	76.72
700.759	77.61
701.074	77.38
701.389	78.01
701.704	77.36
702.019	76.52
702.334	77.9
702.649	77.82
702.964	78.61
703.279	78.63
703.594	79.35
703.908	78.78
704.223	78.52
704.538	76.2
704.852	74.51
705.167	73.05
705.481	73.84
705.796	73.83
706.11	73.69
706.425	73.95
706.739	73.45
707.053	72.75
707.368	73.7
707.682	72.57
707.996	71.19
708.31	71.19
708.624	71.45
708.938	71.89
709.252	71.62
709.566	71.87
709.88	72.66
710.193	70.38
710.507	70.83
710.821	69.76
711.135	69.06
711.448	68.18
711.762	68.99
712.075	70.52
712.389	71.9
712.702	73.65
713.015	74.65
713.329	74.93
713.642	74.82
713.955	75.72
714.269	76.54
714.582	77.6
714.895	77.03
715.208	76.1
715.521	76.61
715.834	77.31
716.147	78.09
716.459	77.01
716.772	75.97
717.085	75.02
717.398	75.02
717.71	75.29
718.023	76.04
718.336	74.61
718.648	74.77
718.961	73.54
719.273	73.39
719.585	73.18
719.898	73.12
720.21	72.55
720.522	70.54
720.834	70.23
721.147	69.56
721.459	68.54
721.771	68.44
722.083	67.69
722.395	67.6
722.707	67.63
723.019	68.08
723.33	66.95
723.642	66.13
723.954	65.17
724.265	66.28
724.577	67
724.889	68.68
725.2	68.82
725.512	69.26
725.823	69.46
726.135	70.27
726.446	70.5
726.757	71.35
727.068	72.86
727.38	72.89
727.691	73.53
728.002	74.37
728.313	75.94
728.624	77.46
728.935	77.29
729.246	78.46
729.557	78.43
729.867	78.47
730.178	77.95
730.489	79.71
730.8	79.45
731.11	80.22
731.421	79.56
731.731	79.76
732.042	79.76
732.352	79.45
732.663	78.05
732.973	78.41
733.283	77.82
733.594	77.86
733.904	78.73
734.214	78.37
734.524	78.5
734.834	78.03
735.144	77.25
735.454	76.84
735.764	76.34
736.074	75.25
736.384	73.13
736.694	73.19
737.003	72.72
737.313	72.98
737.623	71.76
737.932	72.21
738.242	70.3
738.551	70.46
738.861	69.53
739.17	69.09
739.479	69.67
739.789	68.94
740.098	68.83
740.407	70.16
740.716	71.72
741.025	71.49
741.334	70.64
741.643	71.38
741.952	72.27
742.261	73.25
742.57	73.75
742.879	75.53
743.188	75.01
743.497	75.69
743.805	77.16
744.114	79.4
744.422	80.37
744.731	81.38
745.04	81.27
745.348	85.9
745.656	85.47
745.965	84.65
746.273	83.63
746.581	85.32
746.889	84.03
747.198	82.25
747.506	82.77
747.814	84.89
748.122	83.49
748.43	80.51
748.738	79.25
749.046	81.45
749.353	79.31
749.661	79.06
749.969	79.61
750.277	77.71
750.584	76.87
750.892	76.24
751.199	76.64
751.507	77.07
751.814	76.24
752.122	75.85
752.429	74.17
752.736	73.51
753.044	70.7
753.351	71.28
753.658	71.67
753.965	73.2
754.272	73.56
754.579	75.79
754.886	75.53
755.193	75.95
755.5	72.55
755.807	71.66
756.114	72.14
756.42	72.66
756.727	71.39
757.034	72.29
757.34	73.5
757.647	73.13
757.953	73.26
758.26	73.48
758.566	74.04
758.872	74.14
759.179	73.91
759.485	73.71
759.791	73.17
760.097	71.29
760.403	69.2
760.709	68.93
761.015	65.72
761.321	68.05
761.627	67.44
761.933	66.13
762.239	66.22
762.545	64.69
762.851	61.48
763.156	63.91
763.462	66.53
763.767	65.41
764.073	64.05
764.378	64.23
764.684	63.09
764.989	62.76
765.295	63.16
765.6	62.31
765.905	60.07
766.21	57.23
766.515	54.45
766.821	52.28
767.126	50.08
767.431	51.61
767.736	56.48
768.041	53.85
768.345	54.94
768.65	57
768.955	52.15
769.26	46.45
769.564	44.39
769.869	42.46
770.174	45.98
770.478	52.55
770.783	52.54
771.087	55.62
771.391	59.4
771.696	69.36
772	74.21
772.304	75.96
772.608	70.24
772.913	80.4
773.217	82.26
773.521	91.87
773.825	94.08
774.129	94.66
774.433	95.11
774.736	95.83
775.04	87.19
775.344	82.56
775.648	85.97
775.951	84.11
776.255	85.19
776.559	88.44
776.862	97.86
777.166	103.39
777.469	113.72
777.772	114.43
778.076	110.18
778.379	108.77
778.682	96.74
778.985	87.62
779.289	85.02
779.592	88.25
779.895	90.16
780.198	95.23
780.501	82.81
780.804	84.42
781.106	83.77
781.409	76.45
781.712	77.33
782.015	80.33
782.317	75.73
782.62	84.15
782.923	87.97
783.225	89.15
783.527	89.6
783.83	91.79
784.132	97.74
784.435	91.3
784.737	84.56
785.039	70.84
785.341	70.29
785.643	62.42
785.945	51.58
786.248	58.97
786.55	82.86
786.851	76.7
787.153	68.84
787.455	62.25
787.757	72.93
788.059	72.86
788.36	76.79
788.662	69.32
788.964	75.43
789.265	74.92
789.567	73.06
789.868	73.38
790.17	63.67
790.471	61.75
790.772	62.39
791.074	64.6
791.375	61.32
791.676	57.25
791.977	47.26
792.278	46.88
792.579	33.62
792.88	-1.38
793.181	20.97
793.482	31.42
793.783	28.8
794.083	11.72
794.384	12.5
794.685	7.87
794.986	-6.26
795.286	-43.97
795.587	-21.96
795.887	-38.29
796.188	-25.03
796.488	-12.33
796.788	-8.25
797.089	-7.23
797.389	-8.16
797.689	5.93
797.989	-6.8
798.289	-11.41
798.589	11.21
798.889	13.02
799.189	11.92
799.489	33.37
799.789	29.78
800.089	27.34
800.389	59.54
800.688	44.65
800.988	39.43
801.288	38.08
801.587	38.98
801.887	21.7
802.186	3.42
802.486	8.79
802.785	18.61
803.085	-9.37
803.384	5.52
803.683	7.5
803.982	-12.74
804.281	-48.21
804.58	-22.05
804.879	-104.2
805.178	-114.17
805.477	-25.99
805.776	18.48
806.075	-56.43
806.374	-11.17
806.673	-20.85
806.971	-116.84
807.27	-1202.22
807.569	-1497.7
807.867	-1350.42
808.166	552.08
808.464	589.56
808.763	259.95
809.061	271.11
809.359	231.89
809.658	157.11
809.956	52.19
810.254	52.72
810.552	66.72
810.85	53.6
811.148	82.38
811.446	78.7
811.744	68.57
812.042	103.85
812.34	102.64
812.638	110.96
812.935	107.74
813.233	129.11
813.531	167.89
813.828	182.79
814.126	181.78
814.423	212.05
814.721	238.86
815.018	210.72
815.316	228.26
815.613	234.17
815.91	217.1
816.207	145.62
816.504	112.22
816.802	231.27
817.099	174.5
817.396	371.98
817.693	527.11
817.99	679.41
818.286	497.28
818.583	-606.37
818.88	578.02
819.177	338.74
819.473	331.1
819.77	371.17
820.067	1046.27
820.363	3516.44
820.66	-1289.07
820.956	636.1
821.252	-5105.13
821.549	1453.28
821.845	1671.9
822.141	-1048.5
822.437	-220.75
822.734	-305.79
823.03	600.59
823.326	186.64
823.622	360.04
823.918	2370.18
824.213	344.13
824.509	314.81
824.805	221.16
825.101	138.16
825.397	110.55
825.692	213
825.988	141.3
826.283	194.71
826.579	454.94
826.874	-2321.36
827.17	-5556.41
827.465	769.65
827.76	431.5
828.056	448.89
828.351	1564.26
828.646	375.12
828.941	575.42
829.236	541.14
829.531	356.47
829.826	246.96
830.121	258.18
830.416	289.79
830.711	250.95
831.006	236.64
831.3	251.05
831.595	188.84
831.89	166.01
832.184	131.7
832.479	139.74
832.773	148.72
833.068	127.19
833.362	108.25
833.656	98.97
833.951	81.85
834.245	93.05
834.539	114.88
834.833	108.33
835.127	89.08
835.421	66.39
835.715	67.69
836.009	72.19
836.303	54.3
836.597	51.43
836.891	61.12
837.185	66.85
837.478	75.51
837.772	91.73
838.066	101.97
838.359	112.78
838.653	109.23
838.946	120.61
839.24	155.07
839.533	156.16
839.826	162.28
840.119	164.16
840.413	133.75
840.706	209.28
840.999	186.02
841.292	234.73
841.585	198.07
841.878	154.93
842.171	152.57
842.464	245.6
842.757	267.28
843.049	270.32
843.342	244.97
843.635	224.57
843.927	265
844.22	270.02
844.513	325.46
844.805	519.27
845.098	645.41
845.39	652.94
845.682	538.55
845.975	1107.55
846.267	374.15
846.559	320.05
846.851	300.77
847.143	236.8
847.435	291.96
847.727	294.88
848.019	400.29
848.311	846.94
848.603	1383.26
848.895	-980.73
849.186	-189.13
849.478	-14221.74
849.77	892.1
850.061	1335.19
850.353	-2089.92
850.645	-244.24
850.936	-309.72
851.227	-41242.86
851.519	-707.07
851.81	479.14
852.101	361.95
852.393	1219.82
852.684	-1647.02
852.975	-543.08
853.266	-204.17
853.557	-182.09
853.848	-78.07
854.139	-18.69
854.43	-55.04
854.72	-137.77
855.011	-277.19
855.302	-272.49
855.593	-308.88
855.883	-436.84
856.174	-382.35
856.464	-1437.7
856.755	1525.95
857.045	719.1
857.336	684.49
857.626	-2067.82
857.916	1843.8
858.206	-11439.13
858.497	-236.8
858.787	-439.78
859.077	-655.6
859.367	-268.04
859.657	-315.02
859.947	-1115.57
860.237	1383.21
860.527	227.22
860.816	184.36
861.106	105.17
861.396	137.41
861.685	200.55
861.975	276.13
862.265	287.29
862.554	172.75
862.844	-458.47
863.133	-422.43
863.422	-378.54
863.712	-194.64
864.001	-52.01
864.29	-60.19
864.579	-79.12
864.868	-182.37
865.157	-150.9
865.446	-190.64
865.735	-304.07
866.024	-187.13
866.313	-89.99
866.602	-145.71
866.891	-184.48
867.179	-149.08
867.468	-161.95
