Data from T2_Reflection__52__19-25-10-214.txt Node

Date: Fri Jun 04 19:25:10 CEST 2021
User: mabdelazizm
Spectrometer: FLMS18565
Trigger mode: 0
Integration Time (sec): 2.000000E0
Scans to average: 1
Electric dark correction enabled: true
Nonlinearity correction enabled: false
Boxcar width: 12
XAxis mode: Wavelengths
Number of Pixels in Spectrum: 2048
>>>>>Begin Spectral Data<<<<<
179.071	-130.13
179.452	-81.79
179.833	-238.78
180.214	-296.15
180.595	-278.81
180.977	-423.95
181.358	-419.02
181.739	-334.64
182.12	-238.24
182.501	-330.3
182.882	-348.77
183.262	-1305.71
183.643	-319.26
184.024	-203.2
184.405	-96.71
184.786	-49.17
185.166	-57.72
185.547	-28.37
185.927	-12.6
186.308	-5.33
186.689	5.73
187.069	10.56
187.449	-3.78
187.83	-15.81
188.21	-18.79
188.59	-9.63
188.971	-12.19
189.351	-9.54
189.731	-7.73
190.111	-5.43
190.491	-7.97
190.871	-8.61
191.251	-9.4
191.631	-7.63
192.011	-0.8
192.391	-1.17
192.771	2.64
193.151	6.25
193.531	6.31
193.91	6.78
194.29	4.35
194.67	6.33
195.049	1.25
195.429	-1.73
195.808	-6.03
196.188	-6.35
196.567	-10.92
196.946	-9.53
197.326	-11.07
197.705	-11.25
198.084	-13.13
198.464	-13.03
198.843	-10.37
199.222	-9.67
199.601	-9.73
199.98	-7.34
200.359	-5.9
200.738	-4.46
201.117	-9.04
201.496	-15.03
201.875	-13.98
202.254	-16.92
202.632	-18.15
203.011	-18.36
203.39	-18.79
203.768	-17.4
204.147	-17.86
204.525	-17.82
204.904	-19.6
205.282	-17.29
205.661	-21.52
206.039	-17.2
206.418	-19.11
206.796	-16.45
207.174	-16.71
207.552	-18.44
207.931	-20.13
208.309	-22.7
208.687	-20.56
209.065	-19.66
209.443	-22.47
209.821	-26.16
210.199	-28.56
210.577	-27.78
210.954	-22.93
211.332	-24.21
211.71	-22.2
212.088	-20.23
212.465	-20.35
212.843	-19.3
213.221	-15.99
213.598	-15.08
213.976	-14.78
214.353	-13.54
214.731	-15.38
215.108	-11.74
215.485	-11.62
215.863	-10.36
216.24	-12.52
216.617	-12.31
216.994	-12.31
217.371	-10.91
217.749	-9.57
218.126	-10.39
218.503	-10.48
218.88	-9.96
219.256	-9.68
219.633	-8.79
220.01	-7.98
220.387	-7.61
220.764	-6.96
221.14	-6.07
221.517	-6.4
221.894	-5.47
222.27	-4.96
222.647	-5.67
223.023	-5.5
223.4	-5.22
223.776	-4.32
224.153	-4.24
224.529	-4.01
224.905	-3.38
225.282	-2.94
225.658	-2
226.034	-1.39
226.41	-0.69
226.786	-1.19
227.162	-1.07
227.538	-1.1
227.914	-1.45
228.29	-1.47
228.666	-0.92
229.042	-0.95
229.418	-0.46
229.793	-0.53
230.169	-0.58
230.545	-0.81
230.92	-0.88
231.296	-1.04
231.672	-1.3
232.047	-1.27
232.422	-1.29
232.798	-0.94
233.173	-0.88
233.549	-0.57
233.924	-0.54
234.299	-0.54
234.674	-0.53
235.05	-0.58
235.425	-0.6
235.8	-0.46
236.175	-0.18
236.55	-0.12
236.925	-0.02
237.3	0.15
237.675	0.26
238.049	0.17
238.424	0.18
238.799	0.25
239.174	0.35
239.548	0.5
239.923	0.6
240.297	0.57
240.672	0.62
241.046	0.8
241.421	0.75
241.795	0.72
242.17	0.59
242.544	0.65
242.918	0.65
243.293	0.61
243.667	0.57
244.041	0.65
244.415	0.69
244.789	0.7
245.163	0.67
245.537	0.61
245.911	0.66
246.285	0.63
246.659	0.6
247.033	0.65
247.406	0.72
247.78	0.76
248.154	0.67
248.528	0.7
248.901	0.65
249.275	0.65
249.648	0.75
250.022	0.7
250.395	0.62
250.769	0.65
251.142	0.72
251.515	0.76
251.888	0.74
252.262	0.74
252.635	0.78
253.008	0.76
253.381	0.71
253.754	0.67
254.127	0.68
254.5	0.68
254.873	0.7
255.246	0.64
255.619	0.68
255.992	0.71
256.364	0.64
256.737	0.62
257.11	0.63
257.483	0.68
257.855	0.66
258.228	0.68
258.6	0.67
258.973	0.69
259.345	0.75
259.718	0.76
260.09	0.75
260.462	0.67
260.834	0.67
261.207	0.66
261.579	0.62
261.951	0.59
262.323	0.58
262.695	0.58
263.067	0.66
263.439	0.73
263.811	0.73
264.183	0.77
264.555	0.8
264.927	0.78
265.298	0.73
265.67	0.72
266.042	0.74
266.413	0.71
266.785	0.71
267.156	0.65
267.528	0.63
267.899	0.59
268.271	0.56
268.642	0.52
269.013	0.56
269.385	0.61
269.756	0.65
270.127	0.64
270.498	0.64
270.87	0.67
271.241	0.7
271.612	0.72
271.983	0.72
272.354	0.65
272.724	0.55
273.095	0.54
273.466	0.51
273.837	0.5
274.208	0.49
274.578	0.51
274.949	0.52
275.32	0.51
275.69	0.48
276.061	0.44
276.431	0.41
276.802	0.37
277.172	0.41
277.542	0.39
277.913	0.42
278.283	0.35
278.653	0.3
279.023	0.32
279.394	0.33
279.764	0.33
280.134	0.32
280.504	0.29
280.874	0.29
281.244	0.26
281.614	0.27
281.983	0.25
282.353	0.28
282.723	0.28
283.093	0.27
283.462	0.27
283.832	0.32
284.202	0.32
284.571	0.33
284.941	0.35
285.31	0.43
285.68	0.47
286.049	0.47
286.418	0.43
286.788	0.44
287.157	0.4
287.526	0.4
287.895	0.39
288.264	0.37
288.633	0.33
289.002	0.32
289.371	0.37
289.74	0.38
290.109	0.36
290.478	0.35
290.847	0.37
291.216	0.35
291.585	0.24
291.953	0.21
292.322	0.2
292.691	0.17
293.059	0.12
293.428	0.16
293.796	0.14
294.165	0.15
294.533	0.07
294.901	0.08
295.27	0.11
295.638	0.11
296.006	0.04
296.374	-0.02
296.743	0
297.111	0
297.479	0
297.847	0.03
298.215	-0.01
298.583	-0.06
298.95	-0.05
299.318	-0.03
299.686	-0.05
300.054	-0.05
300.422	0
300.789	0.03
301.157	0.04
301.525	0.07
301.892	0.07
302.26	0.07
302.627	0.04
302.994	0.01
303.362	0.03
303.729	0.04
304.097	0.01
304.464	-0.04
304.831	-0.02
305.198	-0.02
305.565	0.07
305.932	0.07
306.299	0.03
306.666	-0
307.033	-0.01
307.4	0.04
307.767	-0.02
308.134	-0.04
308.501	-0.03
308.867	-0.02
309.234	-0.01
309.601	0.01
309.967	-0.01
310.334	0.02
310.701	-0.04
311.067	-0.06
311.433	-0.03
311.8	-0.08
312.166	-0.04
312.533	-0.07
312.899	-0.09
313.265	-0.03
313.631	0.03
313.997	0.05
314.363	0.07
314.729	0.06
315.096	0.03
315.461	0
315.827	0.07
316.193	0.06
316.559	0.05
316.925	0.09
317.291	0.11
317.656	0.09
318.022	0.12
318.388	0.12
318.753	0.07
319.119	0.11
319.484	0.14
319.85	0.17
320.215	0.19
320.581	0.16
320.946	0.16
321.311	0.17
321.676	0.15
322.042	0.16
322.407	0.06
322.772	0.06
323.137	0.06
323.502	0.11
323.867	0.12
324.232	0.1
324.597	0.12
324.962	0.05
325.327	0.04
325.691	0.05
326.056	0.03
326.421	0.02
326.785	-0
327.15	-0.06
327.514	-0.12
327.879	-0.11
328.243	-0.11
328.608	-0.15
328.972	-0.13
329.337	-0.18
329.701	-0.13
330.065	-0.11
330.429	-0.1
330.794	-0.08
331.158	-0.04
331.522	-0.03
331.886	-0.07
332.25	-0.1
332.614	-0.14
332.978	-0.16
333.342	-0.09
333.705	-0.09
334.069	-0.09
334.433	-0.12
334.797	-0.13
335.16	-0.17
335.524	-0.15
335.887	-0.14
336.251	-0.11
336.614	-0.08
336.978	-0.11
337.341	-0.15
337.705	-0.17
338.068	-0.14
338.431	-0.08
338.794	-0.15
339.158	-0.13
339.521	-0.17
339.884	-0.24
340.247	-0.28
340.61	-0.21
340.973	-0.23
341.336	-0.24
341.699	-0.29
342.062	-0.3
342.424	-0.36
342.787	-0.35
343.15	-0.35
343.512	-0.32
343.875	-0.37
344.238	-0.33
344.6	-0.39
344.963	-0.38
345.325	-0.43
345.688	-0.43
346.05	-0.39
346.412	-0.34
346.775	-0.33
347.137	-0.37
347.499	-0.38
347.861	-0.37
348.223	-0.34
348.585	-0.37
348.947	-0.34
349.309	-0.38
349.671	-0.4
350.033	-0.4
350.395	-0.39
350.757	-0.38
351.118	-0.43
351.48	-0.44
351.842	-0.4
352.203	-0.4
352.565	-0.4
352.927	-0.34
353.288	-0.33
353.65	-0.29
354.011	-0.33
354.372	-0.26
354.734	-0.27
355.095	-0.33
355.456	-0.33
355.817	-0.32
356.179	-0.37
356.54	-0.37
356.901	-0.36
357.262	-0.41
357.623	-0.41
357.984	-0.31
358.345	-0.28
358.705	-0.27
359.066	-0.24
359.427	-0.25
359.788	-0.23
360.148	-0.13
360.509	-0.05
360.87	-0.03
361.23	0.02
361.591	0.03
361.951	-0.06
362.312	-0.07
362.672	-0.08
363.032	-0.03
363.393	-0.01
363.753	-0.02
364.113	-0.01
364.473	-0.05
364.833	-0.06
365.193	-0.03
365.553	-0.06
365.913	-0.1
366.273	-0.12
366.633	-0.1
366.993	-0.2
367.353	-0.25
367.713	-0.27
368.072	-0.33
368.432	-0.32
368.792	-0.35
369.151	-0.42
369.511	-0.42
369.87	-0.52
370.23	-0.48
370.589	-0.47
370.949	-0.38
371.308	-0.4
371.667	-0.4
372.027	-0.45
372.386	-0.47
372.745	-0.48
373.104	-0.44
373.463	-0.4
373.822	-0.4
374.181	-0.39
374.54	-0.37
374.899	-0.33
375.258	-0.35
375.617	-0.33
375.975	-0.33
376.334	-0.28
376.693	-0.19
377.052	-0.15
377.41	-0.16
377.769	-0.11
378.127	-0.06
378.486	-0.17
378.844	-0.12
379.202	-0.2
379.561	-0.23
379.919	-0.25
380.277	-0.27
380.636	-0.3
380.994	-0.33
381.352	-0.34
381.71	-0.32
382.068	-0.34
382.426	-0.42
382.784	-0.42
383.142	-0.43
383.5	-0.4
383.857	-0.37
384.215	-0.33
384.573	-0.46
384.931	-0.44
385.288	-0.52
385.646	-0.59
386.003	-0.6
386.361	-0.6
386.718	-0.65
387.076	-0.67
387.433	-0.62
387.791	-0.61
388.148	-0.61
388.505	-0.62
388.862	-0.61
389.22	-0.55
389.577	-0.51
389.934	-0.47
390.291	-0.49
390.648	-0.48
391.005	-0.51
391.362	-0.5
391.718	-0.54
392.075	-0.59
392.432	-0.62
392.789	-0.68
393.145	-0.73
393.502	-0.65
393.859	-0.6
394.215	-0.58
394.572	-0.62
394.928	-0.63
395.285	-0.67
395.641	-0.64
395.997	-0.65
396.354	-0.67
396.71	-0.64
397.066	-0.59
397.422	-0.5
397.778	-0.57
398.134	-0.62
398.491	-0.65
398.846	-0.73
399.202	-0.7
399.558	-0.78
399.914	-0.7
400.27	-0.68
400.626	-0.73
400.981	-0.68
401.337	-0.66
401.693	-0.61
402.048	-0.6
402.404	-0.61
402.759	-0.63
403.115	-0.6
403.47	-0.53
403.826	-0.45
404.181	-0.41
404.536	-0.4
404.892	-0.44
405.247	-0.48
405.602	-0.52
405.957	-0.57
406.312	-0.69
406.667	-0.66
407.022	-0.62
407.377	-0.55
407.732	-0.46
408.087	-0.47
408.442	-0.42
408.796	-0.49
409.151	-0.44
409.506	-0.38
409.86	-0.38
410.215	-0.42
410.57	-0.46
410.924	-0.35
411.279	-0.34
411.633	-0.37
411.987	-0.38
412.342	-0.37
412.696	-0.42
413.05	-0.41
413.404	-0.37
413.758	-0.28
414.113	-0.22
414.467	-0.17
414.821	-0.23
415.175	-0.18
415.529	-0.2
415.882	-0.2
416.236	-0.26
416.59	-0.25
416.944	-0.26
417.298	-0.19
417.651	-0.19
418.005	-0.24
418.358	-0.22
418.712	-0.24
419.065	-0.22
419.419	-0.18
419.772	-0.28
420.126	-0.19
420.479	-0.13
420.832	-0.12
421.185	-0.09
421.539	-0.09
421.892	-0.11
422.245	-0.15
422.598	-0.13
422.951	-0.08
423.304	-0.09
423.657	-0.01
424.01	-0
424.363	0.02
424.715	0.02
425.068	0.03
425.421	0.07
425.773	0.1
426.126	0.18
426.479	0.17
426.831	0.2
427.184	0.19
427.536	0.25
427.889	0.24
428.241	0.28
428.593	0.29
428.945	0.23
429.298	0.25
429.65	0.25
430.002	0.17
430.354	0.2
430.706	0.23
431.058	0.29
431.41	0.22
431.762	0.12
432.114	0.11
432.466	0.1
432.817	0.17
433.169	0.21
433.521	0.22
433.872	0.29
434.224	0.28
434.576	0.26
434.927	0.14
435.279	0.16
435.63	0.23
435.981	0.27
436.333	0.31
436.684	0.34
437.035	0.27
437.387	0.36
437.738	0.38
438.089	0.34
438.44	0.35
438.791	0.32
439.142	0.32
439.493	0.35
439.844	0.32
440.195	0.35
440.545	0.49
440.896	0.52
441.247	0.55
441.598	0.47
441.948	0.45
442.299	0.45
442.649	0.45
443	0.43
443.35	0.43
443.701	0.46
444.051	0.45
444.401	0.39
444.752	0.4
445.102	0.32
445.452	0.28
445.802	0.25
446.152	0.21
446.502	0.21
446.852	0.13
447.202	0.17
447.552	0.2
447.902	0.21
448.252	0.12
448.602	0.55
448.952	0.58
449.301	0.56
449.651	0.59
450.001	0.58
450.35	0.62
450.7	0.67
451.049	0.7
451.399	0.72
451.748	0.66
452.097	0.77
452.447	0.62
452.796	0.71
453.145	0.78
453.494	0.73
453.843	0.82
454.193	0.91
454.542	0.92
454.891	0.96
455.239	0.94
455.588	1.02
455.937	0.96
456.286	0.94
456.635	0.92
456.984	0.96
457.332	0.54
457.681	0.5
458.03	0.52
458.378	0.45
458.727	0.46
459.075	0.46
459.423	0.58
459.772	0.57
460.12	0.44
460.468	0.54
460.817	0.47
461.165	0.57
461.513	0.51
461.861	0.47
462.209	0.52
462.557	0.6
462.905	0.62
463.253	0.74
463.601	0.85
463.949	0.87
464.297	0.91
464.644	1.08
464.992	1.14
465.34	1.16
465.687	1.23
466.035	1.1
466.383	1.18
466.73	1.09
467.078	1.07
467.425	1.08
467.772	1.12
468.12	1
468.467	0.96
468.814	1.05
469.161	1.06
469.508	1.12
469.856	1.12
470.203	1.18
470.55	1.22
470.897	1.27
471.243	1.15
471.59	1.15
471.937	1.07
472.284	0.99
472.631	0.92
472.977	0.98
473.324	0.95
473.671	0.88
474.017	0.87
474.364	0.8
474.71	0.89
475.057	0.84
475.403	0.85
475.749	0.87
476.096	0.86
476.442	0.9
476.788	0.92
477.134	0.98
477.48	0.99
477.826	0.95
478.172	0.87
478.518	0.92
478.864	0.91
479.21	0.97
479.556	0.87
479.902	0.95
480.248	1
480.593	1.02
480.939	0.96
481.285	1.01
481.63	0.99
481.976	1
482.321	1.08
482.667	1.17
483.012	1.2
483.357	1.27
483.703	1.35
484.048	1.46
484.393	1.56
484.738	1.6
485.084	1.56
485.429	1.62
485.774	1.65
486.119	1.73
486.464	1.83
486.808	1.94
487.153	2.02
487.498	2.11
487.843	2.1
488.188	2.28
488.532	2.4
488.877	2.54
489.222	2.78
489.566	3.01
489.911	3.23
490.255	3.44
490.6	3.65
490.944	3.88
491.288	4.05
491.633	4.37
491.977	4.57
492.321	4.92
492.665	5.21
493.009	5.55
493.353	5.97
493.697	6.42
494.041	6.84
494.385	7.24
494.729	7.59
495.073	8.04
495.417	8.51
495.76	9.03
496.104	9.53
496.448	10.15
496.791	10.8
497.135	11.36
497.479	11.89
497.822	12.44
498.165	13.09
498.509	13.71
498.852	14.38
499.196	15.04
499.539	15.71
499.882	16.49
500.225	17.22
500.568	17.94
500.911	18.54
501.254	19.27
501.597	19.94
501.94	20.64
502.283	21.32
502.626	21.99
502.969	22.71
503.312	23.52
503.654	24.25
503.997	24.97
504.34	25.69
504.682	26.4
505.025	27.12
505.367	27.83
505.71	28.47
506.052	29.19
506.395	29.93
506.737	30.65
507.079	31.42
507.421	32.12
507.764	32.84
508.106	33.44
508.448	34.1
508.79	34.65
509.132	35.33
509.474	35.96
509.816	36.48
510.158	37.19
510.499	37.88
510.841	38.52
511.183	39.14
511.525	39.7
511.866	40.3
512.208	40.76
512.549	41.33
512.891	41.9
513.232	42.5
513.574	43.14
513.915	43.49
514.256	44.06
514.598	44.61
514.939	45.06
515.28	45.5
515.621	46.05
515.962	46.49
516.303	46.92
516.644	47.49
516.985	47.88
517.326	48.33
517.667	48.8
518.008	49.26
518.349	49.77
518.69	50.26
519.03	50.61
519.371	50.99
519.712	51.37
520.052	51.79
520.393	51.98
520.733	52.6
521.074	53.04
521.414	53.48
521.754	53.84
522.095	54.04
522.435	54.47
522.775	54.85
523.115	55.19
523.455	55.38
523.795	55.65
524.135	55.91
524.475	56.14
524.815	56.44
525.155	56.82
525.495	57.11
525.835	57.37
526.175	57.61
526.514	57.85
526.854	58.03
527.194	58.02
527.533	58.16
527.873	58.39
528.212	58.69
528.552	58.94
528.891	59.2
529.23	59.23
529.57	59.38
529.909	59.48
530.248	59.53
530.587	59.88
530.927	60.11
531.266	60.23
531.605	60.38
531.944	60.56
532.283	60.82
532.621	60.84
532.96	61.14
533.299	61.18
533.638	61.15
533.977	61.33
534.315	61.46
534.654	61.57
534.992	61.78
535.331	61.88
535.67	62.08
536.008	62.25
536.346	62.34
536.685	62.22
537.023	62.29
537.361	62.49
537.7	62.57
538.038	62.65
538.376	62.63
538.714	62.91
539.052	62.82
539.39	62.87
539.728	62.92
540.066	62.97
540.404	63.14
540.741	63.2
541.079	63.32
541.417	63.36
541.755	63.66
542.092	63.76
542.43	63.8
542.767	63.86
543.105	63.82
543.442	63.86
543.78	63.93
544.117	63.93
544.454	64.11
544.792	64.2
545.129	64.4
545.466	64.43
545.803	64.34
546.14	64.34
546.477	64.34
546.814	64.46
547.151	64.3
547.488	64.53
547.825	64.49
548.162	64.59
548.499	64.65
548.835	64.89
549.172	65.07
549.509	65.11
549.845	65.24
550.182	65.2
550.518	65.31
550.855	65.33
551.191	65.46
551.528	65.54
551.864	65.62
552.2	65.55
552.537	65.65
552.873	65.7
553.209	65.77
553.545	65.86
553.881	65.87
554.217	66.01
554.553	66.29
554.889	66.54
555.225	66.53
555.561	66.62
555.896	66.53
556.232	66.59
556.568	66.69
556.903	66.77
557.239	66.55
557.575	66.55
557.91	66.75
558.245	66.81
558.581	66.85
558.916	66.87
559.252	66.89
559.587	67.07
559.922	67.09
560.257	67.24
560.592	67.57
560.928	67.61
561.263	67.62
561.598	67.62
561.933	67.83
562.267	67.94
562.602	68.09
562.937	68.15
563.272	68.19
563.607	68.39
563.941	68.65
564.276	68.75
564.611	68.87
564.945	69.21
565.28	69.55
565.614	69.54
565.949	69.5
566.283	69.19
566.617	69.3
566.951	69.48
567.286	69.53
567.62	69.72
567.954	69.73
568.288	69.74
568.622	69.54
568.956	69.39
569.29	69.68
569.624	69.58
569.958	69.65
570.292	69.53
570.626	69.84
570.959	69.91
571.293	69.92
571.627	70
571.96	69.98
572.294	69.97
572.627	69.97
572.961	70.03
573.294	69.82
573.627	69.69
573.961	69.83
574.294	69.91
574.627	70.36
574.961	70.45
575.294	70.3
575.627	70.47
575.96	70.41
576.293	70.25
576.626	70.42
576.959	70.65
577.292	70.7
577.624	70.47
577.957	70.56
578.29	70.53
578.623	70.61
578.955	70.54
579.288	70.52
579.62	70.47
579.953	70.3
580.285	70.29
580.618	70.41
580.95	70.38
581.282	70.44
581.615	70.66
581.947	70.64
582.279	70.65
582.611	70.57
582.943	70.35
583.275	70.25
583.607	70.46
583.939	70.37
584.271	70.3
584.603	70.5
584.935	70.41
585.267	70.24
585.598	70.33
585.93	70.65
586.262	70.75
586.593	70.9
586.925	70.87
587.256	70.76
587.588	70.69
587.919	70.82
588.25	71.04
588.582	71.19
588.913	71.26
589.244	71.42
589.575	71.48
589.907	71.33
590.238	71.34
590.569	71.54
590.9	71.63
591.231	71.63
591.562	71.55
591.892	71.48
592.223	71.5
592.554	71.68
592.885	71.67
593.215	71.5
593.546	71.49
593.877	71.45
594.207	71.18
594.538	71.06
594.868	70.98
595.198	70.92
595.529	70.93
595.859	70.81
596.189	70.85
596.52	70.88
596.85	70.88
597.18	70.8
597.51	70.73
597.84	70.65
598.17	70.67
598.5	70.71
598.83	70.64
599.16	70.75
599.489	70.9
599.819	70.91
600.149	70.76
600.479	70.73
600.808	70.56
601.138	70.42
601.467	70.51
601.797	70.69
602.126	70.69
602.456	70.87
602.785	71.02
603.114	71.13
603.443	71.31
603.773	71.2
604.102	71.37
604.431	71.43
604.76	71.26
605.089	71.13
605.418	71.14
605.747	71.25
606.076	71.39
606.405	71.2
606.733	71.2
607.062	71.05
607.391	70.94
607.72	70.75
608.048	70.73
608.377	70.79
608.705	70.86
609.034	70.98
609.362	71.24
609.69	71.53
610.019	71.28
610.347	71.47
610.675	71.49
611.004	71.34
611.332	71.23
611.66	71.1
611.988	71.09
612.316	71.3
612.644	70.96
612.972	71.22
613.3	71.22
613.627	71.05
613.955	70.98
614.283	70.67
614.611	70.65
614.938	70.76
615.266	70.8
615.593	70.8
615.921	70.72
616.248	70.95
616.576	70.93
616.903	70.76
617.23	70.53
617.558	70.33
617.885	69.96
618.212	70.1
618.539	69.72
618.866	69.16
619.193	69.05
619.52	69.1
619.847	69.11
620.174	69.19
620.501	68.81
620.828	69.1
621.155	68.98
621.481	68.99
621.808	69.01
622.135	69.02
622.461	69.08
622.788	69.27
623.114	69.16
623.441	68.72
623.767	68.57
624.093	68.57
624.42	68.31
624.746	68.51
625.072	68.53
625.398	69.12
625.725	69.2
626.051	69.32
626.377	69.22
626.703	69.36
627.029	69.76
627.354	69.7
627.68	69.21
628.006	69.29
628.332	69.45
628.658	69.76
628.983	69.6
629.309	69.6
629.634	69.4
629.96	69.41
630.285	69.06
630.611	69.13
630.936	69.6
631.262	69.69
631.587	70.21
631.912	70.68
632.237	70.96
632.562	71.27
632.887	71.28
633.213	71.13
633.538	70.76
633.863	70.69
634.187	70.42
634.512	70.74
634.837	70.67
635.162	70.64
635.487	70.58
635.811	70.9
636.136	70.72
636.461	70.55
636.785	70.06
637.11	69.96
637.434	69.68
637.758	70.12
638.083	69.73
638.407	69.86
638.731	69.61
639.056	68.77
639.38	68.46
639.704	69.08
640.028	68.92
640.352	68.49
640.676	68.36
641	68.17
641.324	68.35
641.648	68.16
641.972	68.19
642.295	68.26
642.619	68.08
642.943	67.93
643.266	68.07
643.59	68.14
643.913	68.17
644.237	68.29
644.56	68.12
644.884	68.66
645.207	69.04
645.53	69.16
645.854	69.01
646.177	69.11
646.5	69.5
646.823	69.56
647.146	69.91
647.469	70.47
647.792	69.93
648.115	70.07
648.438	70.61
648.761	72.22
649.084	72.99
649.406	72.94
649.729	72.22
650.052	72.14
650.374	72.01
650.697	71.82
651.019	71.95
651.342	71.93
651.664	71.94
651.987	71.9
652.309	71.77
652.631	71.91
652.953	71.85
653.276	71.7
653.598	71.59
653.92	71.63
654.242	71.75
654.564	71.68
654.886	71.51
655.208	71.49
655.53	71.43
655.851	71.38
656.173	71.31
656.495	71.31
656.816	70.46
657.138	69.71
657.46	68.78
657.781	68.71
658.103	68.37
658.424	68.16
658.746	68.02
659.067	67.42
659.388	67.17
659.709	66.46
660.031	65.94
660.352	66.1
660.673	65.17
660.994	64.97
661.315	64.99
661.636	65.77
661.957	65.69
662.278	65.39
662.599	65.02
662.919	65.7
663.24	66.14
663.561	65.35
663.881	65.25
664.202	65.28
664.523	64.31
664.843	64.57
665.164	64.43
665.484	64.82
665.804	64.8
666.125	64.38
666.445	65.34
666.765	66.02
667.085	66.58
667.405	66.33
667.726	67.32
668.046	67.9
668.366	67.76
668.686	67.98
669.005	67.41
669.325	67.83
669.645	67
669.965	66.35
670.285	66.34
670.604	66.6
670.924	66.63
671.243	66.74
671.563	67.12
671.882	67.29
672.202	66.63
672.521	67.19
672.841	66.38
673.16	66.4
673.479	65.85
673.798	64.88
674.117	65.65
674.437	65.15
674.756	65.27
675.075	65.01
675.394	65.32
675.713	65.61
676.031	65.64
676.35	66.32
676.669	66.33
676.988	67.5
677.306	66.5
677.625	67.38
677.944	68.18
678.262	68.32
678.581	68.67
678.899	68.61
679.218	68.66
679.536	68.46
679.854	68.13
680.172	68.31
680.491	68.12
680.809	69.12
681.127	68.68
681.445	69.08
681.763	69.81
682.081	69.14
682.399	68.31
682.717	67.66
683.035	68.1
683.352	68.32
683.67	67.92
683.988	68.17
684.306	68.12
684.623	68.39
684.941	67.8
685.258	68.67
685.576	68.17
685.893	67.97
686.211	67.86
686.528	67.84
686.845	68.05
687.162	67.42
687.48	67.88
687.797	68.44
688.114	68.4
688.431	68.07
688.748	67.46
689.065	66.81
689.382	67.08
689.699	67.58
690.015	68.33
690.332	69.89
690.649	70.56
690.966	70.89
691.282	70.55
691.599	70.5
691.915	70.13
692.232	69.05
692.548	69.41
692.865	69.89
693.181	69.7
693.497	69.57
693.813	69.61
694.13	70.09
694.446	69.31
694.762	69.23
695.078	68.93
695.394	69.07
695.71	68.85
696.026	68.76
696.342	68.77
696.658	69.21
696.973	71.17
697.289	70.64
697.605	70.36
697.92	69.76
698.236	69.06
698.551	67.68
698.867	66.95
699.182	67.95
699.498	67.95
699.813	68.74
700.128	70.34
700.444	69.37
700.759	68.79
701.074	68.64
701.389	68.78
701.704	67.76
702.019	66.88
702.334	67.84
702.649	67.77
702.964	67.36
703.279	66.69
703.594	67.75
703.908	68.34
704.223	68.72
704.538	68.41
704.852	67.15
705.167	66.44
705.481	65.74
705.796	65.12
706.11	63.9
706.425	65.04
706.739	65.41
707.053	64.13
707.368	65.08
707.682	64.77
707.996	64.8
708.31	64.34
708.624	64.65
708.938	64.88
709.252	64.88
709.566	64.75
709.88	65.07
710.193	63.92
710.507	63.64
710.821	64.12
711.135	64.14
711.448	63.85
711.762	63.43
712.075	63.45
712.389	64.47
712.702	64.9
713.015	65.94
713.329	66.04
713.642	66.36
713.955	67.79
714.269	68.01
714.582	67.85
714.895	68.71
715.208	67.38
715.521	67.93
715.834	67.56
716.147	69.05
716.459	68.63
716.772	68.1
717.085	67.42
717.398	68.06
717.71	68.04
718.023	67.64
718.336	66.62
718.648	66.71
718.961	64.74
719.273	62.49
719.585	62.71
719.898	64.04
720.21	62.9
720.522	63.53
720.834	63.71
721.147	65.13
721.459	65.41
721.771	66.29
722.083	65.5
722.395	65.17
722.707	64.18
723.019	63.81
723.33	62.07
723.642	62.74
723.954	61.05
724.265	60.68
724.577	61.67
724.889	61.84
725.2	62.91
725.512	63.06
725.823	63.71
726.135	65.61
726.446	65.87
726.757	67.36
727.068	69.58
727.38	70.11
727.691	68.3
728.002	69.63
728.313	68.93
728.624	69.22
728.935	67.83
729.246	68.05
729.557	67.33
729.867	68.28
730.178	67.73
730.489	69.48
730.8	70.63
731.11	71.46
731.421	69.22
731.731	69.25
732.042	69.69
732.352	68.97
732.663	69.06
732.973	68.22
733.283	68.05
733.594	68.45
733.904	68.22
734.214	68.23
734.524	67.72
734.834	67.73
735.144	66.73
735.454	67.47
735.764	66.06
736.074	66.91
736.384	66.47
736.694	67.65
737.003	67.52
737.313	67.69
737.623	66.21
737.932	66.9
738.242	66.89
738.551	65.6
738.861	64.56
739.17	66.18
739.479	67.63
739.789	68.22
740.098	67.49
740.407	67.08
740.716	69.46
741.025	69.3
741.334	69.71
741.643	69.76
741.952	69.95
742.261	70.75
742.57	69.88
742.879	70.49
743.188	71.18
743.497	72.22
743.805	71.43
744.114	70.98
744.422	68.34
744.731	68.36
745.04	68.2
745.348	70.92
745.656	66.66
745.965	64.2
746.273	64.56
746.581	65.74
746.889	64.75
747.198	65.48
747.506	65.04
747.814	65.86
748.122	66.01
748.43	63.77
748.738	62.5
749.046	61.89
749.353	61.49
749.661	59.19
749.969	60.59
750.277	58.78
750.584	59.64
750.892	58.52
751.199	58.94
751.507	58.94
751.814	61.41
752.122	63.38
752.429	64.21
752.736	65.31
753.044	62.86
753.351	65.87
753.658	65.52
753.965	64.87
754.272	66.3
754.579	65.44
754.886	62.75
755.193	63.67
755.5	62.84
755.807	62.42
756.114	61.88
756.42	63.97
756.727	62.47
757.034	63.21
757.34	65.47
757.647	63.47
757.953	63.21
758.26	60.92
758.566	59.9
758.872	60.35
759.179	61.98
759.485	57.68
759.791	56.33
760.097	53.76
760.403	54.2
760.709	55.64
761.015	54.75
761.321	55.24
761.627	56.42
761.933	53.76
762.239	54.95
762.545	54.28
762.851	50.67
763.156	54.03
763.462	54.79
763.767	53.47
764.073	53.96
764.378	55.37
764.684	54.19
764.989	52.22
765.295	56.09
765.6	58.35
765.905	62.83
766.21	62.13
766.515	58.16
766.821	53.69
767.126	53.68
767.431	54.87
767.736	56.7
768.041	51.58
768.345	52.92
768.65	56.71
768.955	48.29
769.26	44.05
769.564	45.07
769.869	47.2
770.174	55.43
770.478	64.66
770.783	59.76
771.087	57.27
771.391	64.48
771.696	59.53
772	65.96
772.304	61.76
772.608	62.93
772.913	59.44
773.217	55.47
773.521	47.47
773.825	48.73
774.129	56.77
774.433	57.38
774.736	58.69
775.04	51.28
775.344	47.5
775.648	48.47
775.951	42.23
776.255	32.14
776.559	39.73
776.862	41.09
777.166	40.79
777.469	33.91
777.772	26.56
778.076	19.91
778.379	20.09
778.682	15.87
778.985	9.58
779.289	7.12
779.592	2.39
779.895	4.48
780.198	11.03
780.501	12.26
780.804	16.94
781.106	14
781.409	6.51
781.712	3.4
782.015	-4.81
782.317	-2.13
782.62	2.92
782.923	-1.25
783.225	-10.69
783.527	-8.29
783.83	-11.63
784.132	-20.43
784.435	-18.98
784.737	-19.32
785.039	-11.43
785.341	-6.24
785.643	-23.46
785.945	-27.27
786.248	-16.74
786.55	-12.79
786.851	-2.48
787.153	-10.04
787.455	-1.18
787.757	-16.81
788.059	-36.28
788.36	-52.07
788.662	-46.53
788.964	-33.44
789.265	-32.22
789.567	-33.86
789.868	-34.56
790.17	-36.14
790.471	-30.85
790.772	-45.24
791.074	-88.9
791.375	-81.93
791.676	-41.86
791.977	-43.99
792.278	-43.68
792.579	-53.97
792.88	-56.83
793.181	-33.45
793.482	-39.18
793.783	-49.52
794.083	-56.42
794.384	-65.04
794.685	-61.51
794.986	-90.97
795.286	-120.03
795.587	-79.7
795.887	-80.43
796.188	-69
796.488	-78.69
796.788	-76.9
797.089	-79.63
797.389	-79.54
797.689	-92.4
797.989	-153.07
798.289	-133.58
798.589	-100.98
798.889	-118.37
799.189	-143.19
799.489	-136.24
799.789	-122.56
800.089	-134.88
800.389	-155.86
800.688	-159.11
800.988	-146.78
801.288	-148.14
801.587	-132.4
801.887	-163.37
802.186	-173.5
802.486	-132.49
802.785	-131.64
803.085	-164.96
803.384	-158.61
803.683	-204.37
803.982	-207.67
804.281	-281.07
804.58	-248.47
804.879	-473.4
805.178	-583.28
805.477	-246.89
805.776	-238.15
806.075	-308
806.374	-192.84
806.673	-184.52
806.971	-357.78
807.27	-2894.07
807.569	-4840.23
807.867	-3094.96
808.166	1238.87
808.464	1040.74
808.763	322.74
809.061	272.13
809.359	335.5
809.658	293.92
809.956	246.4
810.254	184.69
810.552	199.14
810.85	221.72
811.148	217.56
811.446	230.45
811.744	241.51
812.042	222.98
812.34	241.66
812.638	257.73
812.935	259.63
813.233	253.95
813.531	381.1
813.828	352.96
814.126	369.71
814.423	439.66
814.721	572.53
815.018	442.47
815.316	446.82
815.613	473.96
815.91	541.73
816.207	494.41
816.504	423.72
816.802	571.58
817.099	427.58
817.396	723.99
817.693	968.99
817.99	1372.48
818.286	878.49
818.583	-1375.6
818.88	1176.04
819.177	704.2
819.473	926.4
819.77	1014.93
820.067	2747.76
820.363	8135.62
820.66	-3315.3
820.956	1897.44
821.252	-14858.97
821.549	4218.25
821.845	4776.03
822.141	-3134.73
822.437	-804.63
822.734	-1318.01
823.03	2311.83
823.326	531.42
823.622	812.47
823.918	6180.7
824.213	1287.9
824.509	1261.62
824.805	732.55
825.101	446.25
825.397	326.19
825.692	614.03
825.988	277.9
826.283	481.23
826.579	1035.17
826.874	-5936.89
827.17	-14120.51
827.465	1239.29
827.76	619.82
828.056	569.78
828.351	1793.98
828.646	465.98
828.941	677.86
829.236	696.67
829.531	473.24
829.826	343.27
830.121	363.23
830.416	487.16
830.711	443.24
831.006	444.89
831.3	483.13
831.595	381.46
831.89	319.32
832.184	279.2
832.479	286.65
832.773	303.45
833.068	264.63
833.362	265.54
833.656	259.09
833.951	205.08
834.245	201.65
834.539	244.84
834.833	279.8
835.127	261.25
835.421	263.41
835.715	219.16
836.009	250.34
836.303	227.9
836.597	198.85
836.891	195.31
837.185	228.07
837.478	198.42
837.772	190.36
838.066	198.81
838.359	217.83
838.653	205.44
838.946	218.9
839.24	279.01
839.533	271.88
839.826	357.04
840.119	371.81
840.413	392.91
840.706	430.08
840.999	283.01
841.292	360.73
841.585	303.22
841.878	230.36
842.171	239.52
842.464	369.42
842.757	339.06
843.049	372.54
843.342	307.58
843.635	313.65
843.927	413.46
844.22	405.06
844.513	463.09
844.805	925.59
845.098	1145.18
845.39	1371.06
845.682	1292.29
845.975	2313.58
846.267	795.33
846.559	565.76
846.851	455.29
847.143	343.95
847.435	449.66
847.727	462.34
848.019	646.9
848.311	1441.04
848.603	2857.94
848.895	-1904.28
849.186	-516.07
849.478	-29230.43
849.77	1936.47
850.061	2803
850.353	-4869.75
850.645	-865.94
850.936	-794.55
851.227	-87585.71
851.519	-2089.71
851.81	1492.64
852.101	1119.25
852.393	3540.55
852.684	-4611.26
852.975	-1417.8
853.266	-599.29
853.557	-517.28
853.848	-298.06
854.139	-188.91
854.43	-221.97
854.72	-364.04
855.011	-494.68
855.302	-549.57
855.593	-683.04
855.883	-892.01
856.174	-724.43
856.464	-2677.05
856.755	2847.03
857.045	1312.2
857.336	1427.98
857.626	-5851.72
857.916	4088.43
858.206	-21856.52
858.497	-490.09
858.787	-586.21
859.077	-872.75
859.367	-358.26
859.657	-550.59
859.947	-2387.43
860.237	3108.76
860.527	616.39
860.816	511.47
861.106	259.05
861.396	348.19
861.685	537.79
861.975	854.07
862.265	1193.89
862.554	618.93
862.844	-2274.86
863.133	-1807.98
863.422	-2087.04
863.712	-801.51
864.001	-318
864.29	-350.24
864.579	-355.81
864.868	-497.21
865.157	-471.11
865.446	-626.11
865.735	-987.99
866.024	-856.44
866.313	-479.98
866.602	-762.86
866.891	-615.2
867.179	-377.3
867.468	-308.12
