Data from T2_Reflection__66__19-34-28-196.txt Node

Date: Fri Jun 04 19:34:28 CEST 2021
User: mabdelazizm
Spectrometer: FLMS18565
Trigger mode: 0
Integration Time (sec): 2.000000E0
Scans to average: 1
Electric dark correction enabled: true
Nonlinearity correction enabled: false
Boxcar width: 12
XAxis mode: Wavelengths
Number of Pixels in Spectrum: 2048
>>>>>Begin Spectral Data<<<<<
179.071	-117.84
179.452	-71.13
179.833	-216.45
180.214	-176.92
180.595	-187.79
180.977	-318.25
181.358	-195.29
181.739	-219.55
182.12	-82.45
182.501	-102.33
182.882	-136.64
183.262	-614.29
183.643	-104.09
184.024	-61.69
184.405	-24.34
184.786	-22.25
185.166	-36.71
185.547	-11.32
185.927	3.05
186.308	-2.72
186.689	12.03
187.069	14.17
187.449	13.13
187.83	9.85
188.21	13.48
188.59	16.98
188.971	17.52
189.351	22.53
189.731	22.52
190.111	26.48
190.491	19.15
190.871	15.95
191.251	21.13
191.631	20.69
192.011	20.11
192.391	20.78
192.771	22.39
193.151	21.23
193.531	24.32
193.91	25.26
194.29	27.67
194.67	28.33
195.049	24.49
195.429	24.5
195.808	26.49
196.188	20.93
196.567	19.35
196.946	22.86
197.326	21.76
197.705	21.17
198.084	20.77
198.464	19.08
198.843	17.21
199.222	14.37
199.601	12.19
199.98	12.65
200.359	11.79
200.738	12.63
201.117	7.72
201.496	6.15
201.875	7.41
202.254	9.02
202.632	8.56
203.011	7.5
203.39	8.36
203.768	8.09
204.147	8.96
204.525	8.52
204.904	7.17
205.282	7.04
205.661	5.53
206.039	8.52
206.418	4.44
206.796	5.97
207.174	4.75
207.552	6.15
207.931	2.74
208.309	2.65
208.687	3.34
209.065	4.95
209.443	6.16
209.821	5.57
210.199	4.1
210.577	5.47
210.954	7.61
211.332	5.91
211.71	3.76
212.088	5.92
212.465	5.92
212.843	4.45
213.221	5.67
213.598	6.72
213.976	5.65
214.353	5.42
214.731	4.6
215.108	6.14
215.485	4.12
215.863	4.52
216.24	2.12
216.617	2.72
216.994	1.94
217.371	3.76
217.749	4.32
218.126	4.8
218.503	4.72
218.88	4.95
219.256	5.15
219.633	4.51
220.01	4.54
220.387	4.69
220.764	3.56
221.14	4.33
221.517	3.81
221.894	3.13
222.27	2.99
222.647	2.27
223.023	1.65
223.4	2.25
223.776	1.91
224.153	1.64
224.529	2.05
224.905	2.69
225.282	2.71
225.658	3.21
226.034	2.77
226.41	2.7
226.786	2.39
227.162	2.35
227.538	1.93
227.914	1.55
228.29	1.42
228.666	1.36
229.042	1.26
229.418	1.36
229.793	0.89
230.169	1.2
230.545	0.83
230.92	0.71
231.296	0.69
231.672	0.79
232.047	0.85
232.422	0.59
232.798	0.66
233.173	0.77
233.549	0.88
233.924	0.85
234.299	0.68
234.674	0.59
235.05	0.54
235.425	0.7
235.8	0.63
236.175	0.66
236.55	0.64
236.925	0.67
237.3	0.87
237.675	0.97
238.049	0.99
238.424	1.08
238.799	1.21
239.174	1.38
239.548	1.42
239.923	1.46
240.297	1.36
240.672	1.39
241.046	1.42
241.421	1.34
241.795	1.42
242.17	1.33
242.544	1.33
242.918	1.28
243.293	1.25
243.667	1.24
244.041	1.31
244.415	1.4
244.789	1.34
245.163	1.38
245.537	1.41
245.911	1.43
246.285	1.45
246.659	1.41
247.033	1.38
247.406	1.4
247.78	1.37
248.154	1.24
248.528	1.19
248.901	1.15
249.275	1.13
249.648	1.23
250.022	1.18
250.395	1.14
250.769	1.18
251.142	1.19
251.515	1.22
251.888	1.22
252.262	1.22
252.635	1.26
253.008	1.22
253.381	1.2
253.754	1.14
254.127	1.14
254.5	1.1
254.873	1.06
255.246	1.04
255.619	1.04
255.992	1.05
256.364	1
256.737	0.96
257.11	0.97
257.483	0.99
257.855	1.03
258.228	1.05
258.6	1.04
258.973	1.08
259.345	1.14
259.718	1.11
260.09	1.08
260.462	1.02
260.834	0.98
261.207	0.96
261.579	0.96
261.951	0.94
262.323	0.96
262.695	0.96
263.067	0.98
263.439	1.01
263.811	1.06
264.183	1.11
264.555	1.17
264.927	1.17
265.298	1.12
265.67	1.13
266.042	1.12
266.413	1.09
266.785	1.07
267.156	1.03
267.528	1
267.899	1.01
268.271	0.95
268.642	0.87
269.013	0.89
269.385	0.91
269.756	0.93
270.127	0.9
270.498	0.91
270.87	0.91
271.241	0.87
271.612	0.85
271.983	0.86
272.354	0.81
272.724	0.78
273.095	0.76
273.466	0.72
273.837	0.68
274.208	0.67
274.578	0.64
274.949	0.69
275.32	0.7
275.69	0.65
276.061	0.65
276.431	0.63
276.802	0.62
277.172	0.61
277.542	0.55
277.913	0.62
278.283	0.61
278.653	0.62
279.023	0.65
279.394	0.76
279.764	0.75
280.134	0.81
280.504	0.81
280.874	0.83
281.244	0.8
281.614	0.79
281.983	0.73
282.353	0.76
282.723	0.81
283.093	0.8
283.462	0.83
283.832	0.91
284.202	0.87
284.571	0.85
284.941	0.87
285.31	0.94
285.68	0.96
286.049	0.94
286.418	0.94
286.788	1.02
287.157	1
287.526	0.99
287.895	1.01
288.264	1.02
288.633	0.95
289.002	0.9
289.371	0.91
289.74	0.92
290.109	0.92
290.478	0.92
290.847	0.95
291.216	1.01
291.585	0.92
291.953	0.82
292.322	0.8
292.691	0.73
293.059	0.66
293.428	0.66
293.796	0.7
294.165	0.72
294.533	0.63
294.901	0.6
295.27	0.64
295.638	0.64
296.006	0.58
296.374	0.53
296.743	0.53
297.111	0.51
297.479	0.47
297.847	0.49
298.215	0.49
298.583	0.45
298.95	0.44
299.318	0.47
299.686	0.5
300.054	0.46
300.422	0.46
300.789	0.46
301.157	0.51
301.525	0.52
301.892	0.55
302.26	0.55
302.627	0.57
302.994	0.53
303.362	0.55
303.729	0.59
304.097	0.59
304.464	0.54
304.831	0.57
305.198	0.55
305.565	0.59
305.932	0.57
306.299	0.52
306.666	0.51
307.033	0.5
307.4	0.52
307.767	0.47
308.134	0.43
308.501	0.37
308.867	0.31
309.234	0.34
309.601	0.38
309.967	0.38
310.334	0.39
310.701	0.36
311.067	0.35
311.433	0.4
311.8	0.33
312.166	0.37
312.533	0.33
312.899	0.32
313.265	0.34
313.631	0.4
313.997	0.36
314.363	0.36
314.729	0.36
315.096	0.34
315.461	0.35
315.827	0.37
316.193	0.39
316.559	0.4
316.925	0.46
317.291	0.51
317.656	0.55
318.022	0.57
318.388	0.57
318.753	0.53
319.119	0.55
319.484	0.62
319.85	0.6
320.215	0.57
320.581	0.5
320.946	0.55
321.311	0.49
321.676	0.51
322.042	0.51
322.407	0.45
322.772	0.48
323.137	0.48
323.502	0.55
323.867	0.51
324.232	0.53
324.597	0.54
324.962	0.52
325.327	0.52
325.691	0.57
326.056	0.51
326.421	0.5
326.785	0.49
327.15	0.46
327.514	0.4
327.879	0.41
328.243	0.41
328.608	0.35
328.972	0.38
329.337	0.43
329.701	0.45
330.065	0.43
330.429	0.46
330.794	0.48
331.158	0.51
331.522	0.45
331.886	0.36
332.25	0.33
332.614	0.24
332.978	0.24
333.342	0.27
333.705	0.26
334.069	0.25
334.433	0.24
334.797	0.2
335.16	0.2
335.524	0.17
335.887	0.18
336.251	0.18
336.614	0.18
336.978	0.17
337.341	0.16
337.705	0.15
338.068	0.18
338.431	0.11
338.794	0.08
339.158	0.07
339.521	0.06
339.884	-0.05
340.247	-0.08
340.61	-0.02
340.973	0.01
341.336	0.05
341.699	0.04
342.062	0.06
342.424	0.02
342.787	0.01
343.15	0
343.512	-0.02
343.875	-0.06
344.238	-0.02
344.6	-0.02
344.963	-0.05
345.325	-0.01
345.688	-0.02
346.05	-0.06
346.412	-0.05
346.775	-0.1
347.137	-0.16
347.499	-0.12
347.861	-0.06
348.223	-0.08
348.585	-0.09
348.947	-0
349.309	-0.02
349.671	-0.03
350.033	-0.06
350.395	-0.08
350.757	-0.08
351.118	-0.11
351.48	-0.09
351.842	-0.08
352.203	-0.09
352.565	-0.11
352.927	-0.04
353.288	-0.04
353.65	-0.11
354.011	-0.12
354.372	-0.07
354.734	0.02
355.095	0.04
355.456	0.03
355.817	0.06
356.179	0.05
356.54	0.07
356.901	0.07
357.262	0.05
357.623	0.04
357.984	0.1
358.345	0.16
358.705	0.2
359.066	0.2
359.427	0.2
359.788	0.21
360.148	0.27
360.509	0.25
360.87	0.26
361.23	0.23
361.591	0.28
361.951	0.23
362.312	0.17
362.672	0.25
363.032	0.26
363.393	0.21
363.753	0.14
364.113	0.06
364.473	0.09
364.833	0.14
365.193	0.14
365.553	0.13
365.913	0.09
366.273	0.06
366.633	0.07
366.993	-0.03
367.353	-0.12
367.713	-0.17
368.072	-0.15
368.432	-0.11
368.792	-0.1
369.151	-0.17
369.511	-0.15
369.87	-0.17
370.23	-0.12
370.589	-0.12
370.949	-0.1
371.308	-0.07
371.667	-0.06
372.027	-0.06
372.386	-0.08
372.745	-0.06
373.104	0.05
373.463	0.02
373.822	-0.01
374.181	0.04
374.54	0.05
374.899	0.15
375.258	0.16
375.617	0.12
375.975	0.15
376.334	0.19
376.693	0.3
377.052	0.36
377.41	0.34
377.769	0.34
378.127	0.32
378.486	0.3
378.844	0.27
379.202	0.27
379.561	0.21
379.919	0.22
380.277	0.25
380.636	0.19
380.994	0.13
381.352	0.1
381.71	0.06
382.068	0.09
382.426	0.08
382.784	0.08
383.142	0.05
383.5	0.07
383.857	0.06
384.215	0.08
384.573	0.09
384.931	0.06
385.288	0.01
385.646	-0.05
386.003	-0.06
386.361	-0.04
386.718	-0.06
387.076	0.02
387.433	0.02
387.791	0.09
388.148	0.04
388.505	0.05
388.862	0.02
389.22	-0.01
389.577	0.07
389.934	0.15
390.291	0.19
390.648	0.23
391.005	0.14
391.362	0.12
391.718	0.1
392.075	0.06
392.432	0.05
392.789	-0.02
393.145	-0.02
393.502	-0.01
393.859	-0.02
394.215	0.02
394.572	-0.01
394.928	-0.07
395.285	-0.13
395.641	-0.11
395.997	-0.12
396.354	-0.09
396.71	-0.05
397.066	-0.01
397.422	0.03
397.778	0.02
398.134	0.08
398.491	0.02
398.846	-0.07
399.202	-0.01
399.558	-0.09
399.914	-0.04
400.27	-0.04
400.626	-0.08
400.981	-0.02
401.337	-0.01
401.693	-0.01
402.048	-0.04
402.404	0.05
402.759	0.12
403.115	0.14
403.47	0.14
403.826	0.22
404.181	0.22
404.536	0.13
404.892	0.09
405.247	0.06
405.602	-0.02
405.957	-0.02
406.312	-0.04
406.667	-0.06
407.022	-0.13
407.377	-0.14
407.732	-0.08
408.087	-0.15
408.442	-0.05
408.796	-0.09
409.151	-0.05
409.506	0.03
409.86	-0.05
410.215	-0.13
410.57	-0.15
410.924	-0.04
411.279	-0.14
411.633	-0.21
411.987	-0.22
412.342	-0.16
412.696	-0.21
413.05	-0.12
413.404	0.03
413.758	0.09
414.113	0.16
414.467	0.15
414.821	0.11
415.175	0.16
415.529	0.2
415.882	0.16
416.236	0.17
416.59	0.11
416.944	0.16
417.298	0.22
417.651	0.23
418.005	0.29
418.358	0.33
418.712	0.36
419.065	0.37
419.419	0.42
419.772	0.34
420.126	0.46
420.479	0.57
420.832	0.53
421.185	0.56
421.539	0.55
421.892	0.48
422.245	0.44
422.598	0.42
422.951	0.45
423.304	0.44
423.657	0.49
424.01	0.5
424.363	0.48
424.715	0.64
425.068	0.64
425.421	0.7
425.773	0.68
426.126	0.66
426.479	0.68
426.831	0.64
427.184	0.53
427.536	0.52
427.889	0.54
428.241	0.56
428.593	0.52
428.945	0.51
429.298	0.47
429.65	0.46
430.002	0.42
430.354	0.54
430.706	0.54
431.058	0.58
431.41	0.61
431.762	0.47
432.114	0.5
432.466	0.5
432.817	0.49
433.169	0.49
433.521	0.41
433.872	0.48
434.224	0.44
434.576	0.44
434.927	0.37
435.279	0.36
435.63	0.4
435.981	0.48
436.333	0.57
436.684	0.59
437.035	0.58
437.387	0.66
437.738	0.61
438.089	0.55
438.44	0.61
438.791	0.55
439.142	0.48
439.493	0.48
439.844	0.44
440.195	0.47
440.545	0.55
440.896	0.61
441.247	0.61
441.598	0.59
441.948	0.59
442.299	0.56
442.649	0.53
443	0.58
443.35	0.59
443.701	0.6
444.051	0.63
444.401	0.53
444.752	0.52
445.102	0.43
445.452	0.37
445.802	0.35
446.152	0.35
446.502	0.33
446.852	0.25
447.202	0.3
447.552	0.32
447.902	0.32
448.252	0.29
448.602	0.75
448.952	0.71
449.301	0.76
449.651	0.73
450.001	0.69
450.35	0.65
450.7	0.74
451.049	0.81
451.399	0.87
451.748	0.84
452.097	0.99
452.447	0.97
452.796	1.01
453.145	1.16
453.494	1.12
453.843	1.17
454.193	1.33
454.542	1.31
454.891	1.29
455.239	1.31
455.588	1.51
455.937	1.41
456.286	1.43
456.635	1.36
456.984	1.44
457.332	0.96
457.681	0.95
458.03	0.96
458.378	0.91
458.727	1.07
459.075	1.17
459.423	1.18
459.772	1.21
460.12	1.14
460.468	1.25
460.817	1.16
461.165	1.15
461.513	1.14
461.861	1.14
462.209	1.2
462.557	1.24
462.905	1.1
463.253	1.13
463.601	1.27
463.949	1.26
464.297	1.2
464.644	1.39
464.992	1.37
465.34	1.41
465.687	1.45
466.035	1.38
466.383	1.43
466.73	1.42
467.078	1.46
467.425	1.33
467.772	1.35
468.12	1.35
468.467	1.2
468.814	1.31
469.161	1.2
469.508	1.23
469.856	1.26
470.203	1.18
470.55	1.12
470.897	1.17
471.243	1.11
471.59	1.25
471.937	1.26
472.284	1.24
472.631	1.2
472.977	1.28
473.324	1.2
473.671	1.22
474.017	1.24
474.364	1.19
474.71	1.27
475.057	1.23
475.403	1.23
475.749	1.26
476.096	1.33
476.442	1.29
476.788	1.29
477.134	1.49
477.48	1.4
477.826	1.5
478.172	1.44
478.518	1.5
478.864	1.61
479.21	1.7
479.556	1.66
479.902	1.69
480.248	1.68
480.593	1.63
480.939	1.54
481.285	1.57
481.63	1.51
481.976	1.53
482.321	1.57
482.667	1.59
483.012	1.63
483.357	1.68
483.703	1.75
484.048	1.81
484.393	1.87
484.738	1.88
485.084	1.9
485.429	1.91
485.774	1.85
486.119	1.95
486.464	2.02
486.808	2.12
487.153	2.22
487.498	2.24
487.843	2.22
488.188	2.33
488.532	2.48
488.877	2.63
489.222	2.82
489.566	3.05
489.911	3.31
490.255	3.48
490.6	3.66
490.944	3.85
491.288	4.17
491.633	4.46
491.977	4.65
492.321	4.97
492.665	5.2
493.009	5.49
493.353	5.88
493.697	6.17
494.041	6.58
494.385	6.95
494.729	7.31
495.073	7.69
495.417	8.07
495.76	8.46
496.104	8.94
496.448	9.47
496.791	9.98
497.135	10.46
497.479	10.93
497.822	11.46
498.165	11.98
498.509	12.54
498.852	13.15
499.196	13.66
499.539	14.24
499.882	14.8
500.225	15.33
500.568	15.96
500.911	16.48
501.254	17.14
501.597	17.72
501.94	18.28
502.283	18.9
502.626	19.5
502.969	20.12
503.312	20.68
503.654	21.29
503.997	21.85
504.34	22.43
504.682	23.02
505.025	23.54
505.367	24.2
505.71	24.66
506.052	25.21
506.395	25.76
506.737	26.35
507.079	26.88
507.421	27.48
507.764	28.13
508.106	28.62
508.448	29.12
508.79	29.69
509.132	30.18
509.474	30.66
509.816	31.04
510.158	31.51
510.499	32.01
510.841	32.51
511.183	32.92
511.525	33.33
511.866	33.87
512.208	34.26
512.549	34.83
512.891	35.36
513.232	35.8
513.574	36.3
513.915	36.64
514.256	37.28
514.598	37.77
514.939	38.19
515.28	38.53
515.621	38.99
515.962	39.31
516.303	39.66
516.644	40.09
516.985	40.38
517.326	40.75
517.667	41.11
518.008	41.51
518.349	41.93
518.69	42.26
519.03	42.6
519.371	43.01
519.712	43.33
520.052	43.61
520.393	43.75
520.733	44.03
521.074	44.24
521.414	44.47
521.754	44.65
522.095	45.05
522.435	45.34
522.775	45.56
523.115	45.85
523.455	46.13
523.795	46.49
524.135	46.67
524.475	46.87
524.815	47.12
525.155	47.44
525.495	47.74
525.835	47.76
526.175	48.02
526.514	48.22
526.854	48.48
527.194	48.69
527.533	48.83
527.873	48.91
528.212	49.12
528.552	49.4
528.891	49.69
529.23	49.95
529.57	50.2
529.909	50.46
530.248	50.68
530.587	50.81
530.927	50.86
531.266	50.89
531.605	51.04
531.944	51.06
532.283	51.14
532.621	51.18
532.96	51.48
533.299	51.6
533.638	51.63
533.977	51.78
534.315	52.03
534.654	52.09
534.992	52.11
535.331	52.06
535.67	52.12
536.008	52.2
536.346	52.38
536.685	52.21
537.023	52.21
537.361	52.34
537.7	52.44
538.038	52.27
538.376	52.21
538.714	52.36
539.052	52.32
539.39	52.45
539.728	52.38
540.066	52.24
540.404	52.29
540.741	52.38
541.079	52.49
541.417	52.32
541.755	52.36
542.092	52.36
542.43	52.27
542.767	52.28
543.105	52.21
543.442	52.31
543.78	52.5
544.117	52.5
544.454	52.63
544.792	52.55
545.129	52.79
545.466	52.9
545.803	52.87
546.14	52.7
546.477	52.85
546.814	52.86
547.151	52.72
547.488	52.77
547.825	52.66
548.162	52.73
548.499	52.85
548.835	53.01
549.172	53.02
549.509	53.17
549.845	53.39
550.182	53.32
550.518	53.33
550.855	53.44
551.191	53.52
551.528	53.72
551.864	53.8
552.2	53.7
552.537	53.84
552.873	53.74
553.209	53.92
553.545	53.88
553.881	53.82
554.217	53.98
554.553	54.2
554.889	54.33
555.225	54.47
555.561	54.55
555.896	54.6
556.232	54.73
556.568	54.9
556.903	54.91
557.239	54.81
557.575	54.88
557.91	54.88
558.245	54.82
558.581	54.93
558.916	55.06
559.252	55.15
559.587	55.14
559.922	55.02
560.257	55.09
560.592	55.22
560.928	55.3
561.263	55.49
561.598	55.42
561.933	55.58
562.267	55.79
562.602	55.68
562.937	55.87
563.272	55.99
563.607	55.98
563.941	55.95
564.276	56
564.611	56.05
564.945	56.08
565.28	56.24
565.614	56.13
565.949	56.07
566.283	56
566.617	55.99
566.951	56.28
567.286	56.42
567.62	56.22
567.954	56.24
568.288	56.32
568.622	56.09
568.956	56.1
569.29	56.2
569.624	56.06
569.958	55.99
570.292	56.01
570.626	56.09
570.959	56.27
571.293	56.22
571.627	56.21
571.96	56.17
572.294	56.18
572.627	56.13
572.961	56.18
573.294	56.18
573.627	56.2
573.961	56.36
574.294	56.35
574.627	56.44
574.961	56.52
575.294	56.39
575.627	56.35
575.96	56.51
576.293	56.42
576.626	56.35
576.959	56.55
577.292	56.54
577.624	56.46
577.957	56.55
578.29	56.75
578.623	56.72
578.955	56.66
579.288	56.6
579.62	56.47
579.953	56.36
580.285	56.34
580.618	56.45
580.95	56.49
581.282	56.51
581.615	56.48
581.947	56.3
582.279	56.31
582.611	56.28
582.943	56.1
583.275	56.05
583.607	56.18
583.939	56.12
584.271	56.08
584.603	56.15
584.935	56.24
585.267	56.16
585.598	56.22
585.93	56.24
586.262	56.24
586.593	56.19
586.925	56.24
587.256	56.15
587.588	56.01
587.919	56.1
588.25	56.22
588.582	56.29
588.913	56.27
589.244	56.25
589.575	56.29
589.907	56.36
590.238	56.5
590.569	56.59
590.9	56.65
591.231	56.92
591.562	56.89
591.892	56.64
592.223	56.66
592.554	56.69
592.885	56.68
593.215	56.64
593.546	56.62
593.877	56.42
594.207	56.31
594.538	56.25
594.868	56.07
595.198	56
595.529	56.05
595.859	56.04
596.189	56.19
596.52	56.27
596.85	56.35
597.18	56.35
597.51	56.34
597.84	56.26
598.17	56.25
598.5	56.18
598.83	56.09
599.16	56.13
599.489	56.04
599.819	56.05
600.149	56.07
600.479	56.07
600.808	55.97
601.138	55.92
601.467	55.83
601.797	55.8
602.126	55.89
602.456	56.05
602.785	56.05
603.114	56.01
603.443	56.03
603.773	55.96
604.102	56.05
604.431	55.87
604.76	55.72
605.089	55.57
605.418	55.44
605.747	55.49
606.076	55.51
606.405	55.42
606.733	55.5
607.062	55.54
607.391	55.39
607.72	55.28
608.048	55.14
608.377	55.05
608.705	55
609.034	54.77
609.362	54.86
609.69	54.98
610.019	54.92
610.347	54.96
610.675	54.8
611.004	54.76
611.332	54.91
611.66	54.95
611.988	54.88
612.316	54.91
612.644	54.75
612.972	54.72
613.3	54.69
613.627	54.76
613.955	54.57
614.283	54.42
614.611	54.3
614.938	54.52
615.266	54.43
615.593	54.54
615.921	54.46
616.248	54.6
616.576	54.69
616.903	54.74
617.23	54.89
617.558	54.86
617.885	54.73
618.212	54.68
618.539	54.38
618.866	54.25
619.193	54.22
619.52	54.09
619.847	54.17
620.174	54.23
620.501	54.04
620.828	54.08
621.155	54.17
621.481	54.12
621.808	54.09
622.135	54.35
622.461	54.38
622.788	54.64
623.114	54.08
623.441	53.71
623.767	53.84
624.093	53.73
624.42	53.33
624.746	53.49
625.072	53.44
625.398	53.68
625.725	53.78
626.051	53.58
626.377	53.58
626.703	53.64
627.029	53.63
627.354	53.48
627.68	53.25
628.006	52.77
628.332	52.78
628.658	52.68
628.983	53.01
629.309	52.88
629.634	53.01
629.96	52.79
630.285	52.59
630.611	52.38
630.936	52.49
631.262	53.05
631.587	53.44
631.912	53.62
632.237	54.15
632.562	55.16
632.887	54.8
633.213	54.65
633.538	54.78
633.863	54.35
634.187	54.62
634.512	54.5
634.837	54.43
635.162	54.57
635.487	54.61
635.811	55.12
636.136	55.87
636.461	55.61
636.785	55.64
637.11	55.68
637.434	55.9
637.758	56.02
638.083	55.98
638.407	56.37
638.731	56.47
639.056	55.7
639.38	55.16
639.704	55.37
640.028	55.05
640.352	54.87
640.676	54.67
641	54.97
641.324	54.73
641.648	54.43
641.972	54.36
642.295	54.57
642.619	55.02
642.943	55.01
643.266	55.36
643.59	55.22
643.913	54.56
644.237	54
644.56	53.62
644.884	54.14
645.207	53.84
645.53	53.65
645.854	53.72
646.177	54.19
646.5	53.61
646.823	53.82
647.146	54.22
647.469	54.38
647.792	53.78
648.115	53.27
648.438	53.44
648.761	54.39
649.084	54.47
649.406	54.27
649.729	53.84
650.052	53.51
650.374	53.25
650.697	53.22
651.019	53.26
651.342	53.07
651.664	53.17
651.987	53.35
652.309	53.33
652.631	53.55
652.953	53.56
653.276	53.52
653.598	53.49
653.92	53.45
654.242	53.31
654.564	53.39
654.886	53.32
655.208	53.27
655.53	53.24
655.851	53.32
656.173	53.4
656.495	53.38
656.816	52.75
657.138	52.44
657.46	51.9
657.781	51.78
658.103	52.13
658.424	52.44
658.746	52.09
659.067	51.74
659.388	51.37
659.709	51.31
660.031	51.16
660.352	50.41
660.673	49.3
660.994	48.24
661.315	48.3
661.636	48.09
661.957	47.7
662.278	48.64
662.599	48.51
662.919	47.73
663.24	47.63
663.561	47.17
663.881	46.63
664.202	46.69
664.523	45.96
664.843	45.94
665.164	44.97
665.484	45.51
665.804	45.29
666.125	45.22
666.445	45.64
666.765	45.83
667.085	46.41
667.405	47.11
667.726	47.64
668.046	47.82
668.366	48.21
668.686	48.54
669.005	48.8
669.325	48.37
669.645	47.81
669.965	47.99
670.285	47.24
670.604	47.41
670.924	48.01
671.243	48.42
671.563	48.93
671.882	49.37
672.202	49.22
672.521	49.17
672.841	49.06
673.16	49.37
673.479	49.22
673.798	49.27
674.117	49.81
674.437	49
674.756	49.19
675.075	48.76
675.394	48.06
675.713	47.66
676.031	47.64
676.35	47.79
676.669	48.08
676.988	48.61
677.306	48.66
677.625	48.91
677.944	48.3
678.262	48.4
678.581	48.08
678.899	48.2
679.218	48.11
679.536	47.81
679.854	47.57
680.172	46.98
680.491	47.05
680.809	47.11
681.127	47.01
681.445	47.29
681.763	47.19
682.081	46.67
682.399	47.01
682.717	46.82
683.035	47.42
683.352	47.77
683.67	47.26
683.988	47.37
684.306	47.96
684.623	47.87
684.941	47.79
685.258	47.84
685.576	48.51
685.893	49.16
686.211	49.28
686.528	49.48
686.845	50.05
687.162	49.94
687.48	50.32
687.797	50.93
688.114	51.97
688.431	52.32
688.748	52.55
689.065	52.59
689.382	52.83
689.699	53.95
690.015	55.06
690.332	55.69
690.649	56.34
690.966	55.94
691.282	56.64
691.599	57.3
691.915	57.25
692.232	57.06
692.548	57.72
692.865	57.85
693.181	58.51
693.497	58.35
693.813	58.91
694.13	59.97
694.446	60.22
694.762	59.84
695.078	59.66
695.394	59.8
695.71	58.38
696.026	58.02
696.342	57.67
696.658	57.9
696.973	58.65
697.289	58.82
697.605	57.24
697.92	56.57
698.236	57.12
698.551	56.18
698.867	56.76
699.182	57.55
699.498	57.77
699.813	57.92
700.128	59.18
700.444	58.37
700.759	58.02
701.074	57.92
701.389	58.32
701.704	58.17
702.019	56.93
702.334	57.82
702.649	57.84
702.964	58.86
703.279	58.83
703.594	60.44
703.908	60.46
704.223	60.79
704.538	60.54
704.852	59.23
705.167	58.52
705.481	59
705.796	59.11
706.11	57.82
706.425	57.95
706.739	58.12
707.053	56.73
707.368	56.76
707.682	57.38
707.996	55.81
708.31	56.44
708.624	56.6
708.938	55.98
709.252	55.83
709.566	55.43
709.88	56.04
710.193	54.25
710.507	54.04
710.821	53.59
711.135	54.05
711.448	53.38
711.762	54.06
712.075	53.99
712.389	55.16
712.702	56.16
713.015	56.19
713.329	55.64
713.642	55.27
713.955	55.71
714.269	56.65
714.582	56.55
714.895	56.98
715.208	57.59
715.521	58.27
715.834	59.4
716.147	60.27
716.459	60.19
716.772	61.23
717.085	61.79
717.398	62.31
717.71	62.71
718.023	63.69
718.336	64.02
718.648	63.46
718.961	62.03
719.273	62.82
719.585	63.35
719.898	65.02
720.21	63.61
720.522	64.4
720.834	65.05
721.147	66.67
721.459	65.76
721.771	66.94
722.083	66.61
722.395	67.19
722.707	66.3
723.019	64.94
723.33	62.72
723.642	62.12
723.954	60.93
724.265	61.22
724.577	59.67
724.889	58.8
725.2	58.51
725.512	58.13
725.823	57.84
726.135	57.92
726.446	57.89
726.757	58.59
727.068	58.98
727.38	58.29
727.691	57.2
728.002	57.9
728.313	58.09
728.624	58.32
728.935	57.66
729.246	58.75
729.557	58.52
729.867	58.88
730.178	58.32
730.489	60.3
730.8	61.56
731.11	61.74
731.421	62.39
731.731	61.7
732.042	61.24
732.352	61.72
732.663	61.57
732.973	61.29
733.283	61.07
733.594	61.18
733.904	61.16
734.214	62.68
734.524	62.72
734.834	63.01
735.144	62.86
735.454	63.15
735.764	62.57
736.074	62.17
736.384	62.25
736.694	62.06
737.003	62.92
737.313	63.61
737.623	62.53
737.932	61.87
738.242	61.62
738.551	61.03
738.861	60.96
739.17	59.61
739.479	60.72
739.789	62.11
740.098	63.48
740.407	63.74
740.716	66.53
741.025	66.79
741.334	65.68
741.643	66.41
741.952	63.23
742.261	62.05
742.57	59.95
742.879	60.09
743.188	60.45
743.497	60.59
743.805	60.66
744.114	61.82
744.422	61.85
744.731	60.95
745.04	59.57
745.348	61.11
745.656	60.5
745.965	60.02
746.273	58.77
746.581	60.64
746.889	60.88
747.198	60.64
747.506	59.01
747.814	57.19
748.122	56.91
748.43	51.8
748.738	52.05
749.046	54.47
749.353	54.21
749.661	56.63
749.969	59.37
750.277	57.41
750.584	58.59
750.892	61.08
751.199	62.42
751.507	60.4
751.814	59.8
752.122	61.67
752.429	60.81
752.736	61.51
753.044	59.8
753.351	60.51
753.658	59.57
753.965	60.36
754.272	58.89
754.579	58.7
754.886	59.05
755.193	58.87
755.5	59.29
755.807	58.97
756.114	60.99
756.42	60.14
756.727	59.07
757.034	60.29
757.34	61.21
757.647	60.08
757.953	62.88
758.26	62.91
758.566	61.57
758.872	59.81
759.179	62.41
759.485	61.38
759.791	59.77
760.097	58.74
760.403	58.6
760.709	59.74
761.015	61.01
761.321	59.25
761.627	60.85
761.933	62
762.239	63.81
762.545	63.35
762.851	64.1
763.156	64.81
763.462	66.09
763.767	63.14
764.073	62.82
764.378	63.72
764.684	60.67
764.989	59.94
765.295	61.96
765.6	60.36
765.905	62.55
766.21	61.83
766.515	63
766.821	62.9
767.126	62.53
767.431	62.05
767.736	65.95
768.041	58.82
768.345	57.92
768.65	54.74
768.955	58.34
769.26	52.04
769.564	48.73
769.869	48.39
770.174	48.77
770.478	56.8
770.783	57.62
771.087	57.32
771.391	55.44
771.696	59.07
772	64.74
772.304	69.53
772.608	65.83
772.913	73.45
773.217	76.54
773.521	72.42
773.825	67.04
774.129	67.76
774.433	67.47
774.736	68.87
775.04	70.21
775.344	58.73
775.648	65.51
775.951	60.09
776.255	64.03
776.559	59.5
776.862	64.24
777.166	73.16
777.469	73.91
777.772	70.96
778.076	60.78
778.379	59.36
778.682	58.29
778.985	69.04
779.289	62.99
779.592	58.91
779.895	59.02
780.198	64.37
780.501	55.7
780.804	56.94
781.106	53.78
781.409	50.93
781.712	48.85
782.015	44.4
782.317	44.44
782.62	54.44
782.923	68.33
783.225	66.08
783.527	76.66
783.83	80.63
784.132	85.58
784.435	80.13
784.737	64.11
785.039	53.91
785.341	56.95
785.643	53.6
785.945	48.24
786.248	54.1
786.55	46.61
786.851	50.84
787.153	46.34
787.455	48.74
787.757	53.55
788.059	45.84
788.36	37.4
788.662	36.02
788.964	37.25
789.265	37.43
789.567	48.44
789.868	51.67
790.17	42.77
790.471	40.28
790.772	40.66
791.074	25.34
791.375	16.85
791.676	20.63
791.977	17.12
792.278	28.01
792.579	42.97
792.88	35.09
793.181	48.89
793.482	57.37
793.783	39.57
794.083	55.43
794.384	57.17
794.685	61.85
794.986	52.83
795.286	19.34
795.587	40.48
795.887	48.12
796.188	50.88
796.488	60.6
796.788	58.1
797.089	41.29
797.389	33.12
797.689	41.22
797.989	38.69
798.289	32.93
798.589	34.53
798.889	35.86
799.189	50.77
799.489	68.75
799.789	52.29
800.089	31.12
800.389	35.58
800.688	28.84
800.988	27.15
801.288	38.76
801.587	23.17
801.887	14.97
802.186	-11.66
802.486	-1.96
802.785	13.44
803.085	-8.1
803.384	-8.5
803.683	-21.39
803.982	-32.29
804.281	-30.46
804.58	13.81
804.879	1.66
805.178	-29.79
805.477	-1.66
805.776	59.93
806.075	76.51
806.374	77.26
806.673	38.66
806.971	11.58
807.27	156.3
807.569	1088.51
807.867	903.36
808.166	-520.38
808.464	-399.66
808.763	-119.04
809.061	-34.24
809.359	-107.64
809.658	-219.22
809.956	-238.46
810.254	-157.01
810.552	-147.55
810.85	-208.92
811.148	-169.66
811.446	-136.5
811.744	-104.26
812.042	-5.37
812.34	-4.22
812.638	9.33
812.935	-26.02
813.233	20.07
813.531	-1.24
813.828	21.93
814.126	7.62
814.423	-18.92
814.721	-45.05
815.018	17.81
815.316	75.72
815.613	139.39
815.91	147.17
816.207	90.3
816.504	57.95
816.802	124.48
817.099	142.6
817.396	281.32
817.693	334.63
817.99	541.19
818.286	454.51
818.583	-600.66
818.88	427.13
819.177	238.62
819.473	132.55
819.77	195.71
820.067	109.95
820.363	1267.12
820.66	-365.57
820.956	91.05
821.252	1115.38
821.549	-527.74
821.845	-200.83
822.141	145.51
822.437	145.97
822.734	463.99
823.03	-730.77
823.326	-169.6
823.622	-139.32
823.918	-1015.79
824.213	-308.54
824.509	-512.79
824.805	-139.42
825.101	2.9
825.397	-9.82
825.692	-2.45
825.988	33.54
826.283	63.02
826.579	105.83
826.874	-199.03
827.17	869.23
827.465	33.18
827.76	36.31
828.056	3.38
828.351	101.61
828.646	105.11
828.941	170.53
829.236	163.26
829.531	100.3
829.826	93.3
830.121	127.13
830.416	110.21
830.711	102.07
831.006	130.84
831.3	120.55
831.595	83.1
831.89	93.42
832.184	71.48
832.479	66.87
832.773	73.09
833.068	66.27
833.362	61.5
833.656	44.45
833.951	34.86
834.245	49.4
834.539	50.98
834.833	58.67
835.127	56.19
835.421	59.57
835.715	58.83
836.009	45.46
836.303	41.13
836.597	30.84
836.891	34.77
837.185	15.54
837.478	2.33
837.772	10.66
838.066	-6.13
838.359	-4.63
838.653	3.8
838.946	-7.72
839.24	-30.2
839.533	-55.7
839.826	-91.83
840.119	-97.61
840.413	-160.34
840.706	-106.28
840.999	-34.12
841.292	-34.61
841.585	16.35
841.878	35.37
842.171	9.91
842.464	15.57
842.757	25.17
843.049	51.55
843.342	82.14
843.635	99.45
843.927	129.21
844.22	150.48
844.513	211.2
844.805	424.17
845.098	567.76
845.39	771.06
845.682	739.46
845.975	1345.28
846.267	495.96
846.559	345.03
846.851	329.85
847.143	225.43
847.435	293.3
847.727	304.02
848.019	435.5
848.311	844.67
848.603	1502.58
848.895	-791.74
849.186	-173.61
849.478	-12091.3
849.77	782.07
850.061	802.15
850.353	-1046.22
850.645	-10.18
850.936	-56.11
851.227	-7042.86
851.519	-65.92
851.81	162.99
852.101	160.75
852.393	684.33
852.684	-612.58
852.975	-87.25
853.266	49.14
853.557	47.79
853.848	51.34
854.139	80.03
854.43	52.6
854.72	84.58
855.011	81.84
855.302	155.02
855.593	88.69
855.883	116.7
856.174	68.02
856.464	255.19
856.755	162.7
857.045	160.48
857.336	265.1
857.626	-217.24
857.916	658.68
858.206	-1169.57
858.497	-1.61
858.787	-22.35
859.077	39.34
859.367	74.79
859.657	122.66
859.947	595.81
860.237	-749.64
860.527	-43.76
860.816	17.66
861.106	40.34
861.396	66.77
861.685	33.26
861.975	71.79
862.265	-98.53
862.554	91.95
862.844	-146.99
863.133	-169.2
863.422	-199.6
863.712	-149.24
864.001	-25.18
864.29	-12.8
864.579	-25.05
864.868	-105.93
865.157	-120.46
865.446	-207.39
865.735	-325.14
866.024	-281.52
866.313	-170.7
866.602	-351.43
866.891	-293.6
867.179	-188.75
867.468	-178.38
