Data from T2_Reflection__117__20-13-22-120.txt Node

Date: Fri Jun 04 20:13:22 CEST 2021
User: mabdelazizm
Spectrometer: FLMS18565
Trigger mode: 0
Integration Time (sec): 2.000000E0
Scans to average: 1
Electric dark correction enabled: true
Nonlinearity correction enabled: false
Boxcar width: 12
XAxis mode: Wavelengths
Number of Pixels in Spectrum: 2048
>>>>>Begin Spectral Data<<<<<
179.071	-166.41
179.452	-102.73
179.833	-288.84
180.214	-334.62
180.595	-290.01
180.977	-472.24
181.358	-412.91
181.739	-347.49
182.12	-234.24
182.501	-273.66
182.882	-299.42
183.262	-1131.43
183.643	-237.3
184.024	-161.09
184.405	-89.46
184.786	-47.22
185.166	-47.82
185.547	-28.15
185.927	-22.28
186.308	-36.39
186.689	-27.89
187.069	-27.6
187.449	-31.36
187.83	-40.25
188.21	-45.25
188.59	-35.36
188.971	-35.08
189.351	-26.71
189.731	-23.82
190.111	-24.61
190.491	-22.53
190.871	-20.76
191.251	-18.73
191.631	-17.91
192.011	-14.93
192.391	-15.13
192.771	-12.25
193.151	-12.18
193.531	-12.01
193.91	-9.54
194.29	-10.77
194.67	-7.3
195.049	-10.5
195.429	-8.26
195.808	-5.61
196.188	-5.66
196.567	-5.64
196.946	-1.52
197.326	0.95
197.705	3.98
198.084	0.3
198.464	-2.76
198.843	-2.84
199.222	-3.72
199.601	-4.1
199.98	-6.51
200.359	-5.87
200.738	-3.7
201.117	-5.81
201.496	-10.23
201.875	-9.02
202.254	-9.28
202.632	-10.38
203.011	-9.27
203.39	-10.52
203.768	-9.55
204.147	-8.19
204.525	-8.49
204.904	-10.26
205.282	-8.88
205.661	-10.65
206.039	-10.84
206.418	-15.04
206.796	-14
207.174	-14.58
207.552	-12.64
207.931	-12.79
208.309	-13.47
208.687	-14.41
209.065	-11.54
209.443	-12.65
209.821	-15.28
210.199	-18.68
210.577	-19.44
210.954	-14.6
211.332	-17.1
211.71	-18.53
212.088	-17.14
212.465	-16.43
212.843	-15.6
213.221	-14.92
213.598	-14.04
213.976	-14.85
214.353	-14.36
214.731	-16.15
215.108	-14.04
215.485	-13.46
215.863	-11.46
216.24	-13.47
216.617	-14.3
216.994	-12.05
217.371	-9.71
217.749	-9.26
218.126	-9.54
218.503	-10.13
218.88	-10.77
219.256	-10.59
219.633	-9.45
220.01	-8.05
220.387	-7.81
220.764	-7.04
221.14	-5.23
221.517	-5.3
221.894	-5.39
222.27	-4.88
222.647	-5.17
223.023	-5.86
223.4	-5.2
223.776	-4.53
224.153	-4.74
224.529	-4.33
224.905	-3.02
225.282	-2.71
225.658	-2.11
226.034	-1.88
226.41	-1.96
226.786	-2.17
227.162	-1.74
227.538	-1.3
227.914	-1.17
228.29	-0.56
228.666	-0.64
229.042	-0.6
229.418	-0.5
229.793	-0.71
230.169	-0.7
230.545	-1.09
230.92	-1.12
231.296	-1.07
231.672	-0.99
232.047	-0.94
232.422	-1.07
232.798	-0.94
233.173	-1.04
233.549	-0.83
233.924	-0.81
234.299	-0.95
234.674	-0.88
235.05	-1
235.425	-0.97
235.8	-0.94
236.175	-0.97
236.55	-0.93
236.925	-0.85
237.3	-0.81
237.675	-0.73
238.049	-0.68
238.424	-0.66
238.799	-0.54
239.174	-0.4
239.548	-0.22
239.923	-0.09
240.297	-0.12
240.672	-0.12
241.046	-0.21
241.421	-0.15
241.795	-0.05
242.17	-0.13
242.544	-0.02
242.918	-0.01
243.293	-0.09
243.667	-0.14
244.041	-0.09
244.415	0.01
244.789	0.06
245.163	0.06
245.537	0.09
245.911	0.14
246.285	0.16
246.659	0.2
247.033	0.22
247.406	0.23
247.78	0.21
248.154	0.12
248.528	0.13
248.901	0.07
249.275	0.06
249.648	0.16
250.022	0.17
250.395	0.19
250.769	0.13
251.142	0.15
251.515	0.24
251.888	0.23
252.262	0.32
252.635	0.39
253.008	0.44
253.381	0.41
253.754	0.44
254.127	0.42
254.5	0.4
254.873	0.4
255.246	0.36
255.619	0.35
255.992	0.31
256.364	0.28
256.737	0.32
257.11	0.38
257.483	0.4
257.855	0.39
258.228	0.43
258.6	0.45
258.973	0.49
259.345	0.53
259.718	0.53
260.09	0.54
260.462	0.5
260.834	0.49
261.207	0.48
261.579	0.44
261.951	0.45
262.323	0.4
262.695	0.42
263.067	0.39
263.439	0.45
263.811	0.46
264.183	0.47
264.555	0.51
264.927	0.5
265.298	0.5
265.67	0.49
266.042	0.45
266.413	0.37
266.785	0.34
267.156	0.31
267.528	0.27
267.899	0.26
268.271	0.19
268.642	0.09
269.013	0.12
269.385	0.13
269.756	0.11
270.127	0.05
270.498	0.06
270.87	0.05
271.241	0
271.612	-0
271.983	-0.03
272.354	-0.07
272.724	-0.12
273.095	-0.12
273.466	-0.16
273.837	-0.18
274.208	-0.21
274.578	-0.2
274.949	-0.17
275.32	-0.15
275.69	-0.16
276.061	-0.17
276.431	-0.15
276.802	-0.19
277.172	-0.17
277.542	-0.18
277.913	-0.12
278.283	-0.15
278.653	-0.1
279.023	-0.11
279.394	-0.05
279.764	-0.04
280.134	-0.03
280.504	-0.04
280.874	-0.07
281.244	-0.05
281.614	-0.03
281.983	-0.08
282.353	-0.05
282.723	0.02
283.093	0.03
283.462	0.11
283.832	0.12
284.202	0.1
284.571	0.13
284.941	0.15
285.31	0.21
285.68	0.22
286.049	0.22
286.418	0.2
286.788	0.29
287.157	0.29
287.526	0.27
287.895	0.25
288.264	0.29
288.633	0.24
289.002	0.19
289.371	0.23
289.74	0.21
290.109	0.27
290.478	0.21
290.847	0.23
291.216	0.25
291.585	0.2
291.953	0.11
292.322	0.07
292.691	-0.01
293.059	-0.05
293.428	-0.07
293.796	-0.07
294.165	-0.05
294.533	-0.1
294.901	-0.08
295.27	-0.03
295.638	-0.04
296.006	-0.12
296.374	-0.17
296.743	-0.13
297.111	-0.21
297.479	-0.24
297.847	-0.24
298.215	-0.25
298.583	-0.28
298.95	-0.28
299.318	-0.3
299.686	-0.3
300.054	-0.34
300.422	-0.31
300.789	-0.31
301.157	-0.27
301.525	-0.27
301.892	-0.26
302.26	-0.27
302.627	-0.22
302.994	-0.26
303.362	-0.21
303.729	-0.18
304.097	-0.23
304.464	-0.27
304.831	-0.24
305.198	-0.24
305.565	-0.23
305.932	-0.31
306.299	-0.29
306.666	-0.29
307.033	-0.26
307.4	-0.22
307.767	-0.28
308.134	-0.26
308.501	-0.29
308.867	-0.29
309.234	-0.26
309.601	-0.26
309.967	-0.32
310.334	-0.3
310.701	-0.32
311.067	-0.27
311.433	-0.22
311.8	-0.32
312.166	-0.32
312.533	-0.41
312.899	-0.42
313.265	-0.42
313.631	-0.39
313.997	-0.44
314.363	-0.45
314.729	-0.41
315.096	-0.36
315.461	-0.34
315.827	-0.32
316.193	-0.34
316.559	-0.37
316.925	-0.35
317.291	-0.33
317.656	-0.34
318.022	-0.34
318.388	-0.34
318.753	-0.35
319.119	-0.3
319.484	-0.28
319.85	-0.27
320.215	-0.24
320.581	-0.24
320.946	-0.21
321.311	-0.21
321.676	-0.18
322.042	-0.23
322.407	-0.26
322.772	-0.24
323.137	-0.2
323.502	-0.12
323.867	-0.09
324.232	-0.17
324.597	-0.18
324.962	-0.22
325.327	-0.19
325.691	-0.21
326.056	-0.22
326.421	-0.25
326.785	-0.23
327.15	-0.23
327.514	-0.25
327.879	-0.21
328.243	-0.23
328.608	-0.28
328.972	-0.24
329.337	-0.37
329.701	-0.43
330.065	-0.41
330.429	-0.34
330.794	-0.3
331.158	-0.24
331.522	-0.25
331.886	-0.3
332.25	-0.35
332.614	-0.4
332.978	-0.45
333.342	-0.38
333.705	-0.39
334.069	-0.4
334.433	-0.44
334.797	-0.4
335.16	-0.41
335.524	-0.36
335.887	-0.33
336.251	-0.33
336.614	-0.39
336.978	-0.45
337.341	-0.47
337.705	-0.49
338.068	-0.45
338.431	-0.41
338.794	-0.42
339.158	-0.42
339.521	-0.47
339.884	-0.58
340.247	-0.58
340.61	-0.56
340.973	-0.58
341.336	-0.57
341.699	-0.65
342.062	-0.69
342.424	-0.72
342.787	-0.72
343.15	-0.7
343.512	-0.68
343.875	-0.75
344.238	-0.71
344.6	-0.81
344.963	-0.8
345.325	-0.82
345.688	-0.78
346.05	-0.79
346.412	-0.77
346.775	-0.81
347.137	-0.91
347.499	-0.9
347.861	-0.85
348.223	-0.85
348.585	-0.87
348.947	-0.82
349.309	-0.88
349.671	-0.83
350.033	-0.84
350.395	-0.85
350.757	-0.83
351.118	-0.87
351.48	-0.84
351.842	-0.82
352.203	-0.81
352.565	-0.85
352.927	-0.81
353.288	-0.88
353.65	-0.87
354.011	-0.92
354.372	-0.83
354.734	-0.8
355.095	-0.77
355.456	-0.77
355.817	-0.71
356.179	-0.7
356.54	-0.7
356.901	-0.76
357.262	-0.8
357.623	-0.83
357.984	-0.73
358.345	-0.72
358.705	-0.75
359.066	-0.77
359.427	-0.76
359.788	-0.73
360.148	-0.65
360.509	-0.64
360.87	-0.58
361.23	-0.6
361.591	-0.55
361.951	-0.6
362.312	-0.59
362.672	-0.52
363.032	-0.5
363.393	-0.56
363.753	-0.63
364.113	-0.66
364.473	-0.66
364.833	-0.66
365.193	-0.66
365.553	-0.64
365.913	-0.65
366.273	-0.64
366.633	-0.61
366.993	-0.73
367.353	-0.8
367.713	-0.79
368.072	-0.81
368.432	-0.81
368.792	-0.82
369.151	-0.87
369.511	-0.85
369.87	-0.95
370.23	-0.84
370.589	-0.82
370.949	-0.84
371.308	-0.85
371.667	-0.85
372.027	-0.88
372.386	-0.91
372.745	-0.92
373.104	-0.91
373.463	-0.89
373.822	-0.91
374.181	-0.9
374.54	-0.91
374.899	-0.85
375.258	-0.89
375.617	-0.86
375.975	-0.81
376.334	-0.7
376.693	-0.7
377.052	-0.66
377.41	-0.67
377.769	-0.63
378.127	-0.57
378.486	-0.61
378.844	-0.6
379.202	-0.69
379.561	-0.75
379.919	-0.66
380.277	-0.66
380.636	-0.76
380.994	-0.78
381.352	-0.79
381.71	-0.75
382.068	-0.7
382.426	-0.7
382.784	-0.72
383.142	-0.7
383.5	-0.69
383.857	-0.66
384.215	-0.63
384.573	-0.71
384.931	-0.7
385.288	-0.79
385.646	-0.82
386.003	-0.84
386.361	-0.8
386.718	-0.83
387.076	-0.87
387.433	-0.9
387.791	-0.83
388.148	-0.85
388.505	-0.85
388.862	-0.88
389.22	-0.85
389.577	-0.72
389.934	-0.7
390.291	-0.65
390.648	-0.65
391.005	-0.69
391.362	-0.71
391.718	-0.7
392.075	-0.76
392.432	-0.73
392.789	-0.82
393.145	-0.8
393.502	-0.8
393.859	-0.76
394.215	-0.67
394.572	-0.67
394.928	-0.7
395.285	-0.69
395.641	-0.68
395.997	-0.66
396.354	-0.66
396.71	-0.67
397.066	-0.67
397.422	-0.57
397.778	-0.6
398.134	-0.6
398.491	-0.69
398.846	-0.71
399.202	-0.73
399.558	-0.8
399.914	-0.77
400.27	-0.81
400.626	-0.81
400.981	-0.82
401.337	-0.84
401.693	-0.79
402.048	-0.85
402.404	-0.79
402.759	-0.91
403.115	-0.93
403.47	-0.95
403.826	-0.93
404.181	-1.02
404.536	-1.09
404.892	-1.11
405.247	-1.07
405.602	-1.1
405.957	-1.08
406.312	-1.19
406.667	-1.16
407.022	-1.19
407.377	-1.13
407.732	-1.1
408.087	-1.14
408.442	-1.04
408.796	-1.11
409.151	-1.07
409.506	-1
409.86	-0.99
410.215	-1.03
410.57	-1.07
410.924	-1.03
411.279	-1.06
411.633	-1.03
411.987	-1.02
412.342	-0.94
412.696	-0.89
413.05	-0.79
413.404	-0.71
413.758	-0.62
414.113	-0.63
414.467	-0.57
414.821	-0.54
415.175	-0.47
415.529	-0.52
415.882	-0.49
416.236	-0.56
416.59	-0.52
416.944	-0.47
417.298	-0.38
417.651	-0.31
418.005	-0.25
418.358	-0.19
418.712	-0.14
419.065	-0.18
419.419	-0.13
419.772	-0.17
420.126	-0.09
420.479	-0.02
420.832	-0.05
421.185	-0
421.539	-0.04
421.892	-0.07
422.245	-0.07
422.598	-0.11
422.951	-0.07
423.304	-0.11
423.657	-0.15
424.01	-0.15
424.363	-0.09
424.715	-0.03
425.068	0.03
425.421	0.05
425.773	0.06
426.126	0.09
426.479	0.11
426.831	0.05
427.184	-0.04
427.536	-0.05
427.889	-0.01
428.241	0.02
428.593	0.13
428.945	0.09
429.298	0.1
429.65	0.13
430.002	0.04
430.354	0.18
430.706	0.24
431.058	0.28
431.41	0.25
431.762	0.16
432.114	0.18
432.466	0.24
432.817	0.3
433.169	0.35
433.521	0.27
433.872	0.32
434.224	0.29
434.576	0.29
434.927	0.19
435.279	0.12
435.63	0.21
435.981	0.27
436.333	0.32
436.684	0.41
437.035	0.38
437.387	0.39
437.738	0.41
438.089	0.41
438.44	0.36
438.791	0.35
439.142	0.28
439.493	0.27
439.844	0.26
440.195	0.3
440.545	0.43
440.896	0.52
441.247	0.58
441.598	0.51
441.948	0.49
442.299	0.52
442.649	0.54
443	0.55
443.35	0.54
443.701	0.57
444.051	0.61
444.401	0.53
444.752	0.51
445.102	0.5
445.452	0.47
445.802	0.5
446.152	0.5
446.502	0.54
446.852	0.41
447.202	0.54
447.552	0.58
447.902	0.6
448.252	0.51
448.602	1.02
448.952	1.04
449.301	0.96
449.651	0.89
450.001	0.8
450.35	0.85
450.7	0.86
451.049	0.91
451.399	0.92
451.748	0.97
452.097	1.13
452.447	1.01
452.796	1.03
453.145	1.15
453.494	1.17
453.843	1.22
454.193	1.3
454.542	1.28
454.891	1.3
455.239	1.21
455.588	1.41
455.937	1.32
456.286	1.38
456.635	1.35
456.984	1.45
457.332	0.92
457.681	0.94
458.03	1.06
458.378	0.95
458.727	1
459.075	0.97
459.423	1.12
459.772	1.11
460.12	1.09
460.468	1.08
460.817	1.07
461.165	1.22
461.513	1.26
461.861	1.29
462.209	1.33
462.557	1.33
462.905	1.21
463.253	1.32
463.601	1.39
463.949	1.42
464.297	1.36
464.644	1.46
464.992	1.4
465.34	1.41
465.687	1.44
466.035	1.3
466.383	1.33
466.73	1.27
467.078	1.32
467.425	1.28
467.772	1.38
468.12	1.26
468.467	1.27
468.814	1.29
469.161	1.3
469.508	1.33
469.856	1.28
470.203	1.31
470.55	1.28
470.897	1.35
471.243	1.29
471.59	1.39
471.937	1.3
472.284	1.27
472.631	1.24
472.977	1.34
473.324	1.28
473.671	1.36
474.017	1.37
474.364	1.28
474.71	1.41
475.057	1.34
475.403	1.3
475.749	1.37
476.096	1.37
476.442	1.28
476.788	1.36
477.134	1.46
477.48	1.43
477.826	1.43
478.172	1.33
478.518	1.39
478.864	1.34
479.21	1.39
479.556	1.28
479.902	1.37
480.248	1.39
480.593	1.35
480.939	1.33
481.285	1.41
481.63	1.38
481.976	1.41
482.321	1.42
482.667	1.46
483.012	1.49
483.357	1.52
483.703	1.61
484.048	1.79
484.393	1.88
484.738	1.99
485.084	2.04
485.429	2.07
485.774	2.1
486.119	2.24
486.464	2.37
486.808	2.52
487.153	2.62
487.498	2.8
487.843	2.83
488.188	3.08
488.532	3.29
488.877	3.5
489.222	3.79
489.566	4.07
489.911	4.4
490.255	4.72
490.6	5.03
490.944	5.31
491.288	5.65
491.633	6.05
491.977	6.39
492.321	6.81
492.665	7.09
493.009	7.42
493.353	7.85
493.697	8.33
494.041	8.72
494.385	9.18
494.729	9.64
495.073	10.1
495.417	10.6
495.76	11.1
496.104	11.65
496.448	12.34
496.791	12.97
497.135	13.51
497.479	14.13
497.822	14.77
498.165	15.44
498.509	16.06
498.852	16.68
499.196	17.37
499.539	18.03
499.882	18.68
500.225	19.4
500.568	20.17
500.911	20.79
501.254	21.56
501.597	22.27
501.94	22.93
502.283	23.53
502.626	24.29
502.969	25.01
503.312	25.64
503.654	26.33
503.997	26.95
504.34	27.61
504.682	28.22
505.025	28.82
505.367	29.38
505.71	29.92
506.052	30.47
506.395	31.08
506.737	31.6
507.079	32.16
507.421	32.74
507.764	33.35
508.106	33.99
508.448	34.56
508.79	35.12
509.132	35.6
509.474	36.08
509.816	36.45
510.158	36.93
510.499	37.39
510.841	38.04
511.183	38.5
511.525	38.95
511.866	39.5
512.208	39.94
512.549	40.42
512.891	40.91
513.232	41.45
513.574	41.9
513.915	42.24
514.256	42.75
514.598	43.29
514.939	43.76
515.28	44.24
515.621	44.74
515.962	45.17
516.303	45.66
516.644	45.92
516.985	46.3
517.326	46.63
517.667	46.96
518.008	47.31
518.349	47.66
518.69	48.17
519.03	48.57
519.371	48.81
519.712	49.09
520.052	49.36
520.393	49.47
520.733	49.75
521.074	50.09
521.414	50.53
521.754	50.78
522.095	50.98
522.435	51.31
522.775	51.65
523.115	51.89
523.455	51.97
523.795	52.12
524.135	52.33
524.475	52.67
524.815	52.69
525.155	53.12
525.495	53.36
525.835	53.53
526.175	53.7
526.514	53.94
526.854	54.24
527.194	54.33
527.533	54.45
527.873	54.55
528.212	54.64
528.552	54.83
528.891	55.11
529.23	55.37
529.57	55.57
529.909	55.74
530.248	55.83
530.587	56.14
530.927	56.35
531.266	56.39
531.605	56.52
531.944	56.62
532.283	56.91
532.621	56.82
532.96	57
533.299	57.15
533.638	57.19
533.977	57.38
534.315	57.47
534.654	57.53
534.992	57.64
535.331	57.56
535.67	57.63
536.008	57.82
536.346	58.08
536.685	58.2
537.023	58.28
537.361	58.45
537.7	58.45
538.038	58.41
538.376	58.37
538.714	58.59
539.052	58.48
539.39	58.45
539.728	58.54
540.066	58.56
540.404	58.8
540.741	58.84
541.079	58.98
541.417	58.89
541.755	58.96
542.092	58.99
542.43	58.97
542.767	59.06
543.105	59.15
543.442	59.2
543.78	59.43
544.117	59.54
544.454	59.65
544.792	59.57
545.129	59.74
545.466	59.7
545.803	59.76
546.14	59.8
546.477	59.92
546.814	60
547.151	59.84
547.488	60.03
547.825	60.13
548.162	60.11
548.499	60.11
548.835	60.21
549.172	60.24
549.509	60.38
549.845	60.42
550.182	60.47
550.518	60.43
550.855	60.48
551.191	60.6
551.528	60.6
551.864	60.73
552.2	60.74
552.537	60.88
552.873	60.88
553.209	61.12
553.545	61.17
553.881	61.34
554.217	61.32
554.553	61.6
554.889	61.67
555.225	61.71
555.561	61.71
555.896	61.66
556.232	61.76
556.568	61.92
556.903	61.97
557.239	61.81
557.575	62.02
557.91	62.1
558.245	62.13
558.581	62.23
558.916	62.37
559.252	62.38
559.587	62.22
559.922	62.38
560.257	62.45
560.592	62.41
560.928	62.38
561.263	62.52
561.598	62.45
561.933	62.5
562.267	62.58
562.602	62.68
562.937	62.69
563.272	62.81
563.607	62.84
563.941	63.18
564.276	63.38
564.611	63.44
564.945	63.55
565.28	63.79
565.614	63.83
565.949	63.66
566.283	63.6
566.617	63.81
566.951	64.01
567.286	63.95
567.62	64.03
567.954	64.24
568.288	64.31
568.622	64.24
568.956	64.22
569.29	64.23
569.624	64.08
569.958	63.97
570.292	63.94
570.626	64.04
570.959	64.19
571.293	64.3
571.627	64.32
571.96	64.28
572.294	64.19
572.627	64.13
572.961	64.18
573.294	64.15
573.627	64.12
573.961	64.22
574.294	64.31
574.627	64.51
574.961	64.52
575.294	64.56
575.627	64.83
575.96	64.76
576.293	64.57
576.626	64.61
576.959	64.66
577.292	64.81
577.624	64.77
577.957	64.88
578.29	65.13
578.623	65.15
578.955	65.18
579.288	65.03
579.62	64.88
579.953	64.74
580.285	64.81
580.618	65
580.95	65.13
581.282	65.2
581.615	65.27
581.947	65.25
582.279	65.25
582.611	65.23
582.943	65.1
583.275	65.16
583.607	65.14
583.939	65.01
584.271	65.03
584.603	65.19
584.935	65.2
585.267	65.22
585.598	65.18
585.93	65.34
586.262	65.41
586.593	65.3
586.925	65.37
587.256	65.28
587.588	65.34
587.919	65.39
588.25	65.53
588.582	65.66
588.913	65.6
589.244	65.51
589.575	65.57
589.907	65.6
590.238	65.53
590.569	65.64
590.9	65.87
591.231	65.99
591.562	65.76
591.892	65.55
592.223	65.55
592.554	65.7
592.885	65.84
593.215	65.79
593.546	65.67
593.877	65.64
594.207	65.58
594.538	65.52
594.868	65.48
595.198	65.49
595.529	65.47
595.859	65.38
596.189	65.63
596.52	65.82
596.85	65.82
597.18	65.74
597.51	65.71
597.84	65.61
598.17	65.69
598.5	65.81
598.83	65.72
599.16	65.58
599.489	65.56
599.819	65.58
600.149	65.72
600.479	65.53
600.808	65.4
601.138	65.24
601.467	65.32
601.797	65.47
602.126	65.46
602.456	65.55
602.785	65.6
603.114	65.59
603.443	65.65
603.773	65.67
604.102	65.81
604.431	65.59
604.76	65.48
605.089	65.21
605.418	65.12
605.747	65.33
606.076	65.27
606.405	65.11
606.733	65.1
607.062	65.09
607.391	65.14
607.72	65.07
608.048	65.09
608.377	64.99
608.705	65.09
609.034	65.1
609.362	65.11
609.69	65.15
610.019	65.01
610.347	65.12
610.675	64.98
611.004	65.06
611.332	65.14
611.66	65.04
611.988	64.98
612.316	65.12
612.644	65.04
612.972	65.08
613.3	65.23
613.627	65.31
613.955	65.07
614.283	64.99
614.611	64.82
614.938	64.87
615.266	64.77
615.593	64.73
615.921	64.65
616.248	64.79
616.576	64.86
616.903	64.94
617.23	65.02
617.558	65.18
617.885	64.93
618.212	64.99
618.539	64.9
618.866	64.63
619.193	64.3
619.52	64.24
619.847	64.29
620.174	64.43
620.501	64.14
620.828	64.18
621.155	64.06
621.481	63.85
621.808	63.8
622.135	63.71
622.461	63.76
622.788	63.87
623.114	63.58
623.441	63.18
623.767	62.94
624.093	62.78
624.42	62.38
624.746	62.27
625.072	62.36
625.398	62.29
625.725	62.14
626.051	62.15
626.377	62.27
626.703	62
627.029	62.3
627.354	62.23
627.68	61.82
628.006	61.74
628.332	61.38
628.658	61.39
628.983	61.1
629.309	61.28
629.634	61.41
629.96	61.18
630.285	61.49
630.611	61.14
630.936	61.48
631.262	62.12
631.587	62.58
631.912	63.09
632.237	63.61
632.562	64.5
632.887	64.79
633.213	64.88
633.538	65.45
633.863	65.27
634.187	65.01
634.512	64.8
634.837	65.11
635.162	64.96
635.487	64.52
635.811	65.19
636.136	65.37
636.461	65.2
636.785	65.15
637.11	65.41
637.434	65.22
637.758	65.64
638.083	65.85
638.407	65.42
638.731	65.43
639.056	64.77
639.38	64.33
639.704	64.65
640.028	64.25
640.352	64.21
640.676	63.79
641	63.46
641.324	63.34
641.648	62.84
641.972	63.08
642.295	63.69
642.619	64.02
642.943	63.45
643.266	63.56
643.59	64.06
643.913	63.76
644.237	63.41
644.56	63.58
644.884	63.86
645.207	63.85
645.53	63.49
645.854	63.26
646.177	63.06
646.5	63.37
646.823	63.61
647.146	63.93
647.469	64.1
647.792	63.79
648.115	63.99
648.438	64.02
648.761	66
649.084	66.6
649.406	66.2
649.729	65.51
650.052	64.94
650.374	64.5
650.697	64.28
651.019	64.34
651.342	64.33
651.664	64.46
651.987	64.5
652.309	64.57
652.631	64.56
652.953	64.59
653.276	64.52
653.598	64.53
653.92	64.5
654.242	64.69
654.564	64.66
654.886	64.63
655.208	64.68
655.53	64.6
655.851	64.6
656.173	64.55
656.495	64.72
656.816	63.63
657.138	62.77
657.46	61.96
657.781	61.7
658.103	61.95
658.424	62.37
658.746	62.18
659.067	62.18
659.388	61.54
659.709	60.74
660.031	60.09
660.352	59.16
660.673	58.43
660.994	57.4
661.315	58.05
661.636	58.27
661.957	58.31
662.278	57.92
662.599	58.05
662.919	57.85
663.24	57.66
663.561	57.29
663.881	56.7
664.202	55.8
664.523	54.68
664.843	55.27
665.164	55.6
665.484	56.46
665.804	56.32
666.125	56.37
666.445	56.91
666.765	57.22
667.085	57.04
667.405	57.5
667.726	58.05
668.046	58.25
668.366	58.6
668.686	59.44
669.005	59.09
669.325	59.06
669.645	58.59
669.965	58.57
670.285	58.46
670.604	58.75
670.924	59.6
671.243	60.01
671.563	60.64
671.882	61.27
672.202	61.52
672.521	62.03
672.841	61.67
673.16	61.27
673.479	60.86
673.798	61.05
674.117	61.32
674.437	60.8
674.756	61.03
675.075	61.34
675.394	61.17
675.713	60.81
676.031	61.31
676.35	61.47
676.669	61.14
676.988	62.36
677.306	62.17
677.625	62.75
677.944	62.74
678.262	63.28
678.581	62.94
678.899	62.31
679.218	62.13
679.536	62.01
679.854	61.52
680.172	61.89
680.491	61.77
680.809	61.88
681.127	62.17
681.445	62.49
681.763	62.77
682.081	62.5
682.399	62.05
682.717	62.24
683.035	62.46
683.352	62.06
683.67	62.14
683.988	61.77
684.306	61.72
684.623	62.15
684.941	62.16
685.258	62.06
685.576	61.79
685.893	62.14
686.211	62.22
686.528	61.82
686.845	62.06
687.162	61.76
687.48	61.26
687.797	62.66
688.114	62.09
688.431	61.84
688.748	62.07
689.065	61.4
689.382	61.68
689.699	61.93
690.015	61.66
690.332	63.06
690.649	62.73
690.966	62.36
691.282	62.91
691.599	62.51
691.915	62.76
692.232	63.24
692.548	63.29
692.865	62.55
693.181	62.78
693.497	62.75
693.813	62.92
694.13	62.24
694.446	62
694.762	62.08
695.078	61.79
695.394	62.49
695.71	61.05
696.026	60.9
696.342	60.85
696.658	60.77
696.973	62.43
697.289	61.38
697.605	60.59
697.92	62.22
698.236	60.98
698.551	60.13
698.867	61.11
699.182	61.96
699.498	62.12
699.813	62.93
700.128	63.83
700.444	63.89
700.759	64.75
701.074	64.36
701.389	64.53
701.704	63.59
702.019	63.64
702.334	65.45
702.649	65.08
702.964	65.06
703.279	65.14
703.594	65.74
703.908	66.24
704.223	66.34
704.538	66.16
704.852	64.27
705.167	63.71
705.481	63.33
705.796	62.36
706.11	62.15
706.425	63.66
706.739	63.62
707.053	62.26
707.368	63.13
707.682	62.61
707.996	61.97
708.31	61.2
708.624	61.26
708.938	60.96
709.252	61.12
709.566	61.18
709.88	60.87
710.193	58.88
710.507	59.19
710.821	59.47
711.135	58.99
711.448	58.88
711.762	58.79
712.075	59
712.389	59.91
712.702	60.88
713.015	61.46
713.329	62.55
713.642	62.27
713.955	63.07
714.269	62.34
714.582	61.81
714.895	61.98
715.208	61.43
715.521	61.61
715.834	60.59
716.147	60.95
716.459	60.44
716.772	60.23
717.085	59.62
717.398	58.29
717.71	58.19
718.023	58.09
718.336	57.3
718.648	56.24
718.961	56
719.273	55.89
719.585	56.85
719.898	57.62
720.21	56.26
720.522	55.68
720.834	55.75
721.147	54.99
721.459	54.44
721.771	54.52
722.083	54.43
722.395	54.73
722.707	55.46
723.019	54.73
723.33	53.01
723.642	54.26
723.954	53.78
724.265	53.81
724.577	53.45
724.889	54.08
725.2	55.53
725.512	56.01
725.823	56.23
726.135	57.18
726.446	58.15
726.757	57.21
727.068	57.39
727.38	56.83
727.691	56.83
728.002	57.24
728.313	57.83
728.624	57.81
728.935	57.48
729.246	58.11
729.557	58.63
729.867	57.69
730.178	58.06
730.489	58.53
730.8	59.69
731.11	61.24
731.421	59.74
731.731	59.96
732.042	58.98
732.352	59.31
732.663	59.41
732.973	60.33
733.283	60.19
733.594	60.82
733.904	60.87
734.214	60.89
734.524	61.54
734.834	62.39
735.144	61.02
735.454	60.96
735.764	61.2
736.074	60.57
736.384	60.43
736.694	61.69
737.003	61.41
737.313	61.1
737.623	61.94
737.932	60.86
738.242	60.98
738.551	60.5
738.861	58.83
739.17	59.35
739.479	60.2
739.789	61.58
740.098	60.69
740.407	59.78
740.716	59.33
741.025	59.87
741.334	60.75
741.643	60.14
741.952	61.33
742.261	60.47
742.57	59.52
742.879	61.41
743.188	60.02
743.497	58.73
743.805	59.51
744.114	62.42
744.422	60.23
744.731	60.52
745.04	59.18
745.348	60.88
745.656	60.98
745.965	60.39
746.273	59.08
746.581	62.4
746.889	61.8
747.198	60.31
747.506	61.02
747.814	61.35
748.122	60.3
748.43	60.54
748.738	59.69
749.046	57.91
749.353	60.07
749.661	59.16
749.969	61.39
750.277	59.68
750.584	58.43
750.892	58.73
751.199	59.36
751.507	60.57
751.814	59.86
752.122	60.91
752.429	61.76
752.736	62.09
753.044	60.37
753.351	59.6
753.658	57.03
753.965	58.32
754.272	57.21
754.579	58.02
754.886	55.78
755.193	53.86
755.5	53.67
755.807	55.89
756.114	53.59
756.42	54.02
756.727	53.8
757.034	51.41
757.34	49.91
757.647	48.79
757.953	48.74
758.26	49.76
758.566	49.18
758.872	49.68
759.179	49.24
759.485	48.14
759.791	49.27
760.097	46.07
760.403	45.46
760.709	45.12
761.015	46.01
761.321	47.11
761.627	47.8
761.933	45.39
762.239	44.12
762.545	45.14
762.851	46.99
763.156	48.66
763.462	47.5
763.767	48.62
764.073	47.57
764.378	47.14
764.684	46.61
764.989	47.22
765.295	49.32
765.6	49.09
765.905	48.49
766.21	47.04
766.515	39.93
766.821	35.46
767.126	29.41
767.431	27
767.736	32.22
768.041	30.12
768.345	29.8
768.65	29.03
768.955	26.09
769.26	23.35
769.564	22.86
769.869	24.63
770.174	24.68
770.478	25.87
770.783	23.06
771.087	22.77
771.391	17.77
771.696	19.28
772	27.54
772.304	35.11
772.608	38.15
772.913	36.78
773.217	30.76
773.521	36.37
773.825	36.95
774.129	46.7
774.433	50.5
774.736	53.46
775.04	46.92
775.344	49.94
775.648	44.63
775.951	36.17
776.255	36.71
776.559	37.75
776.862	34.7
777.166	46.21
777.469	39.61
777.772	34.42
778.076	31.44
778.379	35.77
778.682	34.29
778.985	32.03
779.289	23.96
779.592	16.69
779.895	12.76
780.198	11.5
780.501	5.16
780.804	10.01
781.106	-7.5
781.409	-11.16
781.712	-10.42
782.015	-21.89
782.317	-22.96
782.62	-14.74
782.923	-38.03
783.225	-33.77
783.527	-14.7
783.83	-23.33
784.132	-35.19
784.435	-38.33
784.737	-47.4
785.039	-38.11
785.341	-24.31
785.643	-49.23
785.945	-63.59
786.248	-76.2
786.55	-62.59
786.851	-45.85
787.153	-53.75
787.455	-47.7
787.757	-46.53
788.059	-55.51
788.36	-57.72
788.662	-47.76
788.964	-41.48
789.265	-44.92
789.567	-39.58
789.868	-28.51
790.17	-46.36
790.471	-35.69
790.772	-49.31
791.074	-87.45
791.375	-87.7
791.676	-57.6
791.977	-58.03
792.278	-61.55
792.579	-62.11
792.88	-81.16
793.181	-38.63
793.482	-36.24
793.783	-23.84
794.083	-30.53
794.384	-35.43
794.685	-25.26
794.986	-43.27
795.286	-89.14
795.587	-71.55
795.887	-78.54
796.188	-53.52
796.488	-44.4
796.788	-41.38
797.089	-43.37
797.389	-54.31
797.689	-52.83
797.989	-88.79
798.289	-85.11
798.589	-61.34
798.889	-60.51
799.189	-64.59
799.489	-45.37
799.789	-41.32
800.089	-46.23
800.389	-42.86
800.688	-59.9
800.988	-60.47
801.288	-63.48
801.587	-71.1
801.887	-103.15
802.186	-118.6
802.486	-80.93
802.785	-75.44
803.085	-84.18
803.384	-79.08
803.683	-116.83
803.982	-148.73
804.281	-188.03
804.58	-150.78
804.879	-301.84
805.178	-359.03
805.477	-195.2
805.776	-181.83
806.075	-248.68
806.374	-148.36
806.673	-189.54
806.971	-427.84
807.27	-2958.52
807.569	-4848.28
807.867	-2899.16
808.166	1253.58
808.464	1043.1
808.763	477.87
809.061	354.29
809.359	324.66
809.658	270.36
809.956	246.98
810.254	195.39
810.552	220.73
810.85	232
811.148	204.15
811.446	208.75
811.744	208.75
812.042	200.33
812.34	199.66
812.638	232
812.935	177.66
813.233	189.14
813.531	294.7
813.828	278.76
814.126	253.14
814.423	302.26
814.721	363.84
815.018	265.11
815.316	316.68
815.613	330.6
815.91	382.55
816.207	278.06
816.504	242.71
816.802	455.49
817.099	358.89
817.396	614.55
817.693	791.68
817.99	1041.19
818.286	736.96
818.583	-1166.15
818.88	949.31
819.177	594.87
819.473	811.93
819.77	836.4
820.067	1907.46
820.363	6172.6
820.66	-2296.17
820.956	1199.36
821.252	-10200
821.549	2705.11
821.845	3208.26
822.141	-2573.65
822.437	-770.15
822.734	-1284.24
823.03	2315.98
823.326	523.05
823.622	878.22
823.918	6810.53
824.213	1142.35
824.509	973.06
824.805	641.23
825.101	384.62
825.397	282.83
825.692	489.32
825.988	229.11
826.283	392.52
826.579	867.75
826.874	-4359.22
827.17	-10035.9
827.465	1026.35
827.76	528.98
828.056	527.65
828.351	1796.79
828.646	477.68
828.941	750.84
829.236	636.62
829.531	401.63
829.826	276.97
830.121	319.53
830.416	392.68
830.711	323.89
831.006	339.15
831.3	349.65
831.595	267.23
831.89	224.92
832.184	166.23
832.479	158.09
832.773	166.85
833.068	138.26
833.362	128.87
833.656	123.27
833.951	105.92
834.245	120.71
834.539	154.95
834.833	172.45
835.127	166.18
835.421	159.22
835.715	142.79
836.009	144.7
836.303	114.97
836.597	107.46
836.891	106.55
837.185	118.41
837.478	89.21
837.772	86.79
838.066	99.22
838.359	102.92
838.653	120.91
838.946	123.84
839.24	150.8
839.533	177.98
839.826	270.69
840.119	276.84
840.413	311.61
840.706	361.34
840.999	259.65
841.292	327.67
841.585	304.25
841.878	246.51
842.171	284.29
842.464	420.06
842.757	426.76
843.049	450.1
843.342	369.24
843.635	395.85
843.927	517.2
844.22	558.23
844.513	700.89
844.805	1369.04
845.098	1963.76
845.39	2099.29
845.682	1921.54
845.975	2968.3
846.267	1036.32
846.559	781.14
846.851	612.56
847.143	443.07
847.435	558.32
847.727	594.39
848.019	866.27
848.311	2041.27
848.603	3643.78
848.895	-2268.5
849.186	-570.78
849.478	-27660.87
849.77	1928.88
850.061	2799.14
850.353	-4942.86
850.645	-856.43
850.936	-741.38
851.227	-80828.57
851.519	-1536.33
851.81	1071.98
852.101	831.58
852.393	2695.85
852.684	-3619.87
852.975	-1113.41
853.266	-484.44
853.557	-408.46
853.848	-204.34
854.139	-125.59
854.43	-168.34
854.72	-299.13
855.011	-376.74
855.302	-409.67
855.593	-494.48
855.883	-710.34
856.174	-614.48
856.464	-2243.72
856.755	2660.54
857.045	1331.03
857.336	1509.7
857.626	-5289.66
857.916	3882.64
858.206	-21191.3
858.497	-447.34
858.787	-640.57
859.077	-884.84
859.367	-342.83
859.657	-391.3
859.947	-1663.47
860.237	2226.28
860.527	451.43
860.816	350.28
861.106	200.44
861.396	242.11
861.685	398.9
861.975	629.66
862.265	921.76
862.554	523.22
862.844	-1736.61
863.133	-1232.7
863.422	-1390.28
863.712	-606.6
864.001	-238.71
864.29	-239.81
864.579	-210.19
864.868	-347.29
865.157	-333.1
865.446	-448.28
865.735	-777.45
866.024	-663.37
866.313	-381.44
866.602	-628.57
866.891	-648.64
867.179	-398.77
867.468	-376.39
