Data from T1_Reflection__79__23-22-11-148.txt Node

Date: Wed Jun 02 23:22:11 CEST 2021
User: mabdelazizm
Spectrometer: FLMS18565
Trigger mode: 0
Integration Time (sec): 2.000000E0
Scans to average: 1
Electric dark correction enabled: true
Nonlinearity correction enabled: false
Boxcar width: 12
XAxis mode: Wavelengths
Number of Pixels in Spectrum: 2048
>>>>>Begin Spectral Data<<<<<
179.071	-239.75
179.452	-448.22
179.833	-276.55
180.214	-320
180.595	-3074.77
180.977	-1185.37
181.358	-705.52
181.739	-1501.96
182.12	-607.95
182.501	-628.02
182.882	-307.86
183.262	-438.1
183.643	-192.47
184.024	-78.53
184.405	-30.1
184.786	-4.58
185.166	-6.25
185.547	-4.71
185.927	-15.41
186.308	-10.75
186.689	-10.06
187.069	-10.28
187.449	-15.66
187.83	-16.26
188.21	-14.3
188.59	-14.12
188.971	-9.3
189.351	-8.29
189.731	-0.67
190.111	-0.1
190.491	1.89
190.871	0.08
191.251	0.29
191.631	0.73
192.011	1.28
192.391	1.4
192.771	3.56
193.151	2.95
193.531	3.49
193.91	3.42
194.29	3.04
194.67	2.7
195.049	3.4
195.429	5.34
195.808	5.47
196.188	5.2
196.567	4.42
196.946	5.8
197.326	6.18
197.705	5.49
198.084	5.95
198.464	5.72
198.843	5.37
199.222	1.91
199.601	3.34
199.98	1.6
200.359	2.94
200.738	3.35
201.117	3.96
201.496	3.86
201.875	3.42
202.254	3.3
202.632	3.98
203.011	3.76
203.39	2.19
203.768	3.06
204.147	3.91
204.525	3.78
204.904	3.37
205.282	3.08
205.661	2.49
206.039	4.03
206.418	3.63
206.796	3.57
207.174	3.67
207.552	3.99
207.931	2.95
208.309	3.65
208.687	4.85
209.065	4.65
209.443	4.39
209.821	3.49
210.199	3.41
210.577	1.97
210.954	1.36
211.332	1.79
211.71	1.52
212.088	0.8
212.465	1.52
212.843	2.03
213.221	1.68
213.598	2.34
213.976	1.17
214.353	1.46
214.731	1.74
215.108	1.44
215.485	0.45
215.863	0.56
216.24	0.44
216.617	0.64
216.994	0.6
217.371	0.48
217.749	0.01
218.126	0.12
218.503	-0.04
218.88	0.23
219.256	0.7
219.633	0.84
220.01	1.89
220.387	2.65
220.764	2.11
221.14	2.02
221.517	2.19
221.894	1.48
222.27	2.13
222.647	1.98
223.023	1.12
223.4	1.88
223.776	2.06
224.153	1.93
224.529	2.23
224.905	3.04
225.282	3.33
225.658	3.17
226.034	2.94
226.41	3.09
226.786	3.35
227.162	3.33
227.538	3.42
227.914	3.41
228.29	3.21
228.666	3.15
229.042	2.93
229.418	2.78
229.793	2.68
230.169	2.8
230.545	2.68
230.92	2.9
231.296	2.9
231.672	2.7
232.047	2.61
232.422	2.66
232.798	2.48
233.173	2.38
233.549	2.36
233.924	2.27
234.299	1.86
234.674	1.82
235.05	1.76
235.425	1.81
235.8	1.68
236.175	1.61
236.55	1.64
236.925	1.59
237.3	1.59
237.675	1.52
238.049	1.53
238.424	1.56
238.799	1.58
239.174	1.52
239.548	1.44
239.923	1.42
240.297	1.3
240.672	1.24
241.046	1.24
241.421	1.3
241.795	1.29
242.17	1.4
242.544	1.33
242.918	1.4
243.293	1.41
243.667	1.48
244.041	1.4
244.415	1.41
244.789	1.39
245.163	1.41
245.537	1.46
245.911	1.4
246.285	1.39
246.659	1.38
247.033	1.46
247.406	1.5
247.78	1.47
248.154	1.39
248.528	1.36
248.901	1.38
249.275	1.46
249.648	1.47
250.022	1.5
250.395	1.51
250.769	1.45
251.142	1.47
251.515	1.31
251.888	1.3
252.262	1.23
252.635	1.22
253.008	1.22
253.381	1.2
253.754	1.21
254.127	1.26
254.5	1.27
254.873	1.14
255.246	1.17
255.619	1.15
255.992	1.11
256.364	1.13
256.737	1.11
257.11	1.18
257.483	1.17
257.855	1.19
258.228	1.2
258.6	1.19
258.973	1.18
259.345	1.22
259.718	1.18
260.09	1.17
260.462	1.11
260.834	1.17
261.207	1.22
261.579	1.24
261.951	1.21
262.323	1.14
262.695	1.11
263.067	1.14
263.439	1.09
263.811	1.06
264.183	1.08
264.555	1.01
264.927	0.99
265.298	0.97
265.67	0.91
266.042	0.89
266.413	0.87
266.785	0.82
267.156	0.79
267.528	0.74
267.899	0.67
268.271	0.68
268.642	0.61
269.013	0.62
269.385	0.66
269.756	0.72
270.127	0.7
270.498	0.64
270.87	0.61
271.241	0.56
271.612	0.61
271.983	0.65
272.354	0.64
272.724	0.67
273.095	0.69
273.466	0.73
273.837	0.77
274.208	0.74
274.578	0.71
274.949	0.76
275.32	0.75
275.69	0.68
276.061	0.71
276.431	0.72
276.802	0.66
277.172	0.68
277.542	0.65
277.913	0.7
278.283	0.67
278.653	0.6
279.023	0.58
279.394	0.59
279.764	0.57
280.134	0.58
280.504	0.65
280.874	0.61
281.244	0.57
281.614	0.52
281.983	0.54
282.353	0.54
282.723	0.53
283.093	0.53
283.462	0.56
283.832	0.59
284.202	0.54
284.571	0.52
284.941	0.48
285.31	0.51
285.68	0.53
286.049	0.56
286.418	0.54
286.788	0.62
287.157	0.6
287.526	0.61
287.895	0.64
288.264	0.65
288.633	0.6
289.002	0.67
289.371	0.68
289.74	0.58
290.109	0.58
290.478	0.57
290.847	0.59
291.216	0.53
291.585	0.46
291.953	0.44
292.322	0.45
292.691	0.44
293.059	0.42
293.428	0.4
293.796	0.4
294.165	0.46
294.533	0.43
294.901	0.47
295.27	0.51
295.638	0.48
296.006	0.37
296.374	0.37
296.743	0.33
297.111	0.34
297.479	0.31
297.847	0.32
298.215	0.24
298.583	0.22
298.95	0.27
299.318	0.28
299.686	0.29
300.054	0.32
300.422	0.33
300.789	0.39
301.157	0.37
301.525	0.35
301.892	0.39
302.26	0.42
302.627	0.46
302.994	0.43
303.362	0.36
303.729	0.34
304.097	0.3
304.464	0.26
304.831	0.31
305.198	0.3
305.565	0.28
305.932	0.31
306.299	0.33
306.666	0.35
307.033	0.39
307.4	0.43
307.767	0.42
308.134	0.45
308.501	0.42
308.867	0.39
309.234	0.34
309.601	0.34
309.967	0.35
310.334	0.38
310.701	0.31
311.067	0.26
311.433	0.27
311.8	0.27
312.166	0.31
312.533	0.41
312.899	0.42
313.265	0.4
313.631	0.39
313.997	0.37
314.363	0.31
314.729	0.36
315.096	0.28
315.461	0.23
315.827	0.18
316.193	0.19
316.559	0.19
316.925	0.22
317.291	0.17
317.656	0.2
318.022	0.27
318.388	0.29
318.753	0.24
319.119	0.18
319.484	0.19
319.85	0.22
320.215	0.19
320.581	0.13
320.946	0.11
321.311	0.09
321.676	0.02
322.042	0
322.407	0.04
322.772	0.08
323.137	0.09
323.502	0.12
323.867	0.14
324.232	0.16
324.597	0.12
324.962	0.18
325.327	0.16
325.691	0.19
326.056	0.15
326.421	0.13
326.785	0.16
327.15	0.13
327.514	0.16
327.879	0.15
328.243	0.17
328.608	0.16
328.972	0.25
329.337	0.35
329.701	0.43
330.065	0.45
330.429	0.36
330.794	0.36
331.158	0.36
331.522	0.37
331.886	0.37
332.25	0.3
332.614	0.32
332.978	0.22
333.342	0.27
333.705	0.25
334.069	0.18
334.433	0.24
334.797	0.23
335.16	0.24
335.524	0.25
335.887	0.23
336.251	0.19
336.614	0.15
336.978	0.17
337.341	0.2
337.705	0.19
338.068	0.18
338.431	0.09
338.794	0.04
339.158	-0.01
339.521	0.12
339.884	0.12
340.247	0.15
340.61	0.09
340.973	0.14
341.336	0.21
341.699	0.24
342.062	0.29
342.424	0.29
342.787	0.34
343.15	0.37
343.512	0.26
343.875	0.2
344.238	0.17
344.6	0.22
344.963	0.19
345.325	0.16
345.688	0.11
346.05	0.11
346.412	0
346.775	0.02
347.137	-0.07
347.499	-0.03
347.861	-0.01
348.223	-0
348.585	-0.09
348.947	-0.08
349.309	-0.1
349.671	-0.11
350.033	-0.2
350.395	-0.24
350.757	-0.31
351.118	-0.32
351.48	-0.3
351.842	-0.25
352.203	-0.25
352.565	-0.24
352.927	-0.16
353.288	-0.13
353.65	-0.19
354.011	-0.19
354.372	-0.16
354.734	-0.1
355.095	-0.1
355.456	-0.04
355.817	-0.11
356.179	-0.09
356.54	-0.07
356.901	-0.12
357.262	-0.11
357.623	-0.12
357.984	-0.11
358.345	-0.11
358.705	-0.11
359.066	-0.05
359.427	-0.04
359.788	0
360.148	-0.02
360.509	-0.09
360.87	-0.12
361.23	-0.09
361.591	0.01
361.951	-0.02
362.312	-0.03
362.672	-0.05
363.032	-0.03
363.393	0.01
363.753	0.04
364.113	0.01
364.473	0.02
364.833	0.11
365.193	0.1
365.553	0.11
365.913	0.12
366.273	0.14
366.633	0.22
366.993	0.21
367.353	0.18
367.713	0.21
368.072	0.18
368.432	0.15
368.792	0.23
369.151	0.23
369.511	0.27
369.87	0.27
370.23	0.26
370.589	0.19
370.949	0.16
371.308	0.22
371.667	0.26
372.027	0.28
372.386	0.28
372.745	0.2
373.104	0.21
373.463	0.24
373.822	0.19
374.181	0.24
374.54	0.19
374.899	0.13
375.258	0.03
375.617	-0.02
375.975	0.04
376.334	0.03
376.693	0.06
377.052	0.07
377.41	0.12
377.769	0.07
378.127	0.03
378.486	-0.01
378.844	-0.02
379.202	-0.04
379.561	-0.06
379.919	-0.05
380.277	-0.09
380.636	-0.08
380.994	-0.1
381.352	-0.14
381.71	-0.08
382.068	0.01
382.426	0.04
382.784	0.09
383.142	0.1
383.5	0.07
383.857	0.17
384.215	0.25
384.573	0.14
384.931	0.07
385.288	0.12
385.646	0.04
386.003	0
386.361	0.01
386.718	-0.02
387.076	0
387.433	0.08
387.791	0.06
388.148	0.1
388.505	0.12
388.862	0.07
389.22	0.19
389.577	0.25
389.934	0.33
390.291	0.4
390.648	0.39
391.005	0.4
391.362	0.37
391.718	0.35
392.075	0.3
392.432	0.39
392.789	0.39
393.145	0.49
393.502	0.64
393.859	0.75
394.215	0.84
394.572	1
394.928	1.11
395.285	1.16
395.641	1.22
395.997	1.33
396.354	1.4
396.71	1.53
397.066	1.61
397.422	1.75
397.778	1.88
398.134	1.8
398.491	1.91
398.846	1.97
399.202	2.07
399.558	2.2
399.914	2.29
400.27	2.47
400.626	2.6
400.981	2.75
401.337	2.9
401.693	3
402.048	3.14
402.404	3.34
402.759	3.46
403.115	3.61
403.47	3.81
403.826	3.99
404.181	4.19
404.536	4.4
404.892	4.67
405.247	4.9
405.602	5.14
405.957	5.39
406.312	5.64
406.667	5.87
407.022	6.27
407.377	6.54
407.732	6.9
408.087	7.15
408.442	7.51
408.796	7.81
409.151	8.09
409.506	8.5
409.86	8.81
410.215	9.23
410.57	9.69
410.924	10.09
411.279	10.46
411.633	10.96
411.987	11.46
412.342	11.78
412.696	12.2
413.05	12.75
413.404	13.24
413.758	13.82
414.113	14.29
414.467	14.7
414.821	15.22
415.175	15.77
415.529	16.34
415.882	16.81
416.236	17.31
416.59	17.72
416.944	18.17
417.298	18.72
417.651	19.14
418.005	19.59
418.358	20.08
418.712	20.6
419.065	21.07
419.419	21.51
419.772	21.89
420.126	22.42
420.479	22.89
420.832	23.24
421.185	23.64
421.539	24.11
421.892	24.46
422.245	24.89
422.598	25.18
422.951	25.63
423.304	26.03
423.657	26.31
424.01	26.68
424.363	27.11
424.715	27.49
425.068	27.88
425.421	28.4
425.773	28.78
426.126	29.21
426.479	29.64
426.831	29.99
427.184	30.3
427.536	30.58
427.889	30.9
428.241	31.32
428.593	31.66
428.945	31.98
429.298	32.31
429.65	32.72
430.002	33.19
430.354	33.6
430.706	33.82
431.058	34.17
431.41	34.52
431.762	34.77
432.114	35.15
432.466	35.6
432.817	35.82
433.169	36.15
433.521	36.5
433.872	36.76
434.224	36.89
434.576	37.16
434.927	37.26
435.279	37.56
435.63	37.89
435.981	38.09
436.333	38.5
436.684	38.71
437.035	38.76
437.387	39.06
437.738	39.23
438.089	39.32
438.44	39.42
438.791	39.46
439.142	39.47
439.493	39.85
439.844	40
440.195	40.07
440.545	40.29
440.896	40.36
441.247	40.41
441.598	40.62
441.948	40.78
442.299	40.89
442.649	41.05
443	41.18
443.35	41.44
443.701	41.65
444.051	41.79
444.401	41.82
444.752	41.95
445.102	41.94
445.452	41.99
445.802	42.15
446.152	42.21
446.502	42.31
446.852	42.46
447.202	42.43
447.552	42.53
447.902	42.55
448.252	42.49
448.602	43.93
448.952	44.01
449.301	43.98
449.651	44.03
450.001	44.14
450.35	44.14
450.7	44.2
451.049	44.22
451.399	44.33
451.748	44.41
452.097	44.3
452.447	44.35
452.796	44.27
453.145	44.28
453.494	44.19
453.843	44.09
454.193	44.1
454.542	44.15
454.891	44.19
455.239	44.06
455.588	44.07
455.937	44.21
456.286	44.27
456.635	44.4
456.984	44.46
457.332	42.69
457.681	42.58
458.03	42.41
458.378	42.31
458.727	42.31
459.075	42.29
459.423	42.1
459.772	42.05
460.12	41.82
460.468	41.61
460.817	41.51
461.165	41.36
461.513	41.22
461.861	41.28
462.209	41.18
462.557	41.04
462.905	40.96
463.253	40.76
463.601	40.44
463.949	40.43
464.297	40.15
464.644	39.85
464.992	39.69
465.34	39.54
465.687	39.35
466.035	39.25
466.383	39.2
466.73	39.18
467.078	39.03
467.425	38.76
467.772	38.53
468.12	38.39
468.467	38.28
468.814	38.28
469.161	38.17
469.508	38.05
469.856	37.8
470.203	37.63
470.55	37.27
470.897	37.11
471.243	37.07
471.59	36.75
471.937	36.68
472.284	36.58
472.631	36.47
472.977	36.43
473.324	36.4
473.671	36.35
474.017	36.14
474.364	35.87
474.71	35.74
475.057	35.59
475.403	35.36
475.749	35.28
476.096	35.12
476.442	35
476.788	34.8
477.134	34.52
477.48	34.3
477.826	34.23
478.172	34.05
478.518	33.9
478.864	33.77
479.21	33.77
479.556	33.61
479.902	33.41
480.248	33.14
480.593	32.97
480.939	32.82
481.285	32.65
481.63	32.49
481.976	32.24
482.321	31.98
482.667	31.86
483.012	31.76
483.357	31.59
483.703	31.38
484.048	31.45
484.393	31.22
484.738	31.08
485.084	30.93
485.429	30.78
485.774	30.68
486.119	30.53
486.464	30.36
486.808	30.23
487.153	30.06
487.498	29.82
487.843	29.56
488.188	29.34
488.532	29.1
488.877	29.06
489.222	28.87
489.566	28.7
489.911	28.33
490.255	28.09
490.6	28.02
490.944	27.92
491.288	27.68
491.633	27.51
491.977	27.33
492.321	27.18
492.665	26.88
493.009	26.83
493.353	26.69
493.697	26.51
494.041	26.34
494.385	26.18
494.729	26
495.073	25.82
495.417	25.67
495.76	25.49
496.104	25.4
496.448	25.24
496.791	25.14
497.135	25.05
497.479	24.84
497.822	24.71
498.165	24.59
498.509	24.56
498.852	24.39
499.196	24.21
499.539	23.98
499.882	23.88
500.225	23.73
500.568	23.57
500.911	23.45
501.254	23.26
501.597	23.12
501.94	22.99
502.283	22.79
502.626	22.66
502.969	22.55
503.312	22.44
503.654	22.3
503.997	22.15
504.34	22.06
504.682	21.96
505.025	21.78
505.367	21.67
505.71	21.48
506.052	21.42
506.395	21.29
506.737	21.15
507.079	20.97
507.421	20.86
507.764	20.68
508.106	20.49
508.448	20.4
508.79	20.3
509.132	20.2
509.474	20.13
509.816	19.91
510.158	19.67
510.499	19.49
510.841	19.42
511.183	19.31
511.525	19.18
511.866	18.96
512.208	18.81
512.549	18.65
512.891	18.64
513.232	18.51
513.574	18.42
513.915	18.24
514.256	18.1
514.598	18
514.939	17.83
515.28	17.71
515.621	17.61
515.962	17.48
516.303	17.47
516.644	17.44
516.985	17.23
517.326	17.15
517.667	17.06
518.008	16.83
518.349	16.79
518.69	16.72
519.03	16.55
519.371	16.48
519.712	16.43
520.052	16.41
520.393	16.39
520.733	16.27
521.074	16.29
521.414	16.16
521.754	15.96
522.095	15.87
522.435	15.88
522.775	15.98
523.115	15.91
523.455	15.8
523.795	15.7
524.135	15.7
524.475	15.61
524.815	15.47
525.155	15.45
525.495	15.46
525.835	15.37
526.175	15.2
526.514	15.24
526.854	15.25
527.194	15.25
527.533	15.23
527.873	15.19
528.212	15.02
528.552	14.8
528.891	14.71
529.23	14.78
529.57	14.58
529.909	14.43
530.248	14.46
530.587	14.48
530.927	14.39
531.266	14.23
531.605	14.12
531.944	14.1
532.283	14.08
532.621	14
532.96	14.04
533.299	14.08
533.638	14
533.977	13.92
534.315	13.77
534.654	13.84
534.992	13.84
535.331	13.62
535.67	13.46
536.008	13.4
536.346	13.24
536.685	13.18
537.023	13.09
537.361	13.04
537.7	12.84
538.038	12.78
538.376	12.66
538.714	12.69
539.052	12.56
539.39	12.56
539.728	12.54
540.066	12.55
540.404	12.4
540.741	12.29
541.079	12.13
541.417	12
541.755	11.65
542.092	11.59
542.43	11.56
542.767	11.55
543.105	11.4
543.442	11.32
543.78	11.48
544.117	11.58
544.454	11.62
544.792	11.63
545.129	11.75
545.466	11.79
545.803	11.73
546.14	11.66
546.477	11.65
546.814	11.72
547.151	11.49
547.488	11.59
547.825	11.49
548.162	11.46
548.499	11.34
548.835	11.4
549.172	11.37
549.509	11.47
549.845	11.56
550.182	11.84
550.518	11.78
550.855	11.84
551.191	11.83
551.528	12
551.864	11.95
552.2	11.89
552.537	11.83
552.873	11.71
553.209	11.67
553.545	11.59
553.881	11.7
554.217	11.77
554.553	11.89
554.889	11.95
555.225	11.96
555.561	12.07
555.896	11.91
556.232	11.9
556.568	11.81
556.903	11.93
557.239	11.77
557.575	11.81
557.91	11.8
558.245	11.82
558.581	11.79
558.916	11.93
559.252	11.85
559.587	11.81
559.922	11.75
560.257	11.8
560.592	11.9
560.928	11.92
561.263	12.2
561.598	12.29
561.933	12.25
562.267	12.36
562.602	12.32
562.937	12.33
563.272	12.41
563.607	12.57
563.941	12.66
564.276	12.81
564.611	12.78
564.945	12.81
565.28	12.8
565.614	12.98
565.949	13.09
566.283	13.17
566.617	13.24
566.951	13.3
567.286	13.29
567.62	13.3
567.954	13.35
568.288	13.41
568.622	13.45
568.956	13.38
569.29	13.42
569.624	13.27
569.958	13.27
570.292	13.33
570.626	13.36
570.959	13.45
571.293	13.56
571.627	13.61
571.96	13.57
572.294	13.6
572.627	13.67
572.961	13.75
573.294	13.88
573.627	13.98
573.961	14.05
574.294	14.09
574.627	14.18
574.961	14.16
575.294	14.14
575.627	14.19
575.96	14.28
576.293	14.35
576.626	14.4
576.959	14.46
577.292	14.52
577.624	14.61
577.957	14.8
578.29	14.91
578.623	14.94
578.955	14.87
579.288	14.98
579.62	14.99
579.953	15.07
580.285	15.16
580.618	15.2
580.95	15.29
581.282	15.38
581.615	15.43
581.947	15.47
582.279	15.5
582.611	15.53
582.943	15.59
583.275	15.71
583.607	15.83
583.939	15.89
584.271	15.93
584.603	16.07
584.935	16.19
585.267	16.14
585.598	16.27
585.93	16.39
586.262	16.41
586.593	16.56
586.925	16.76
587.256	17
587.588	17.1
587.919	17.23
588.25	17.29
588.582	17.34
588.913	17.49
589.244	17.49
589.575	17.63
589.907	17.73
590.238	17.92
590.569	18.02
590.9	18.2
591.231	18.34
591.562	18.37
591.892	18.47
592.223	18.76
592.554	18.99
592.885	19.05
593.215	19.12
593.546	19.34
593.877	19.37
594.207	19.43
594.538	19.64
594.868	19.75
595.198	19.75
595.529	19.88
595.859	19.98
596.189	20.07
596.52	20.14
596.85	20.3
597.18	20.49
597.51	20.73
597.84	20.82
598.17	20.97
598.5	21.04
598.83	21.34
599.16	21.64
599.489	21.82
599.819	22.06
600.149	22.39
600.479	22.41
600.808	22.63
601.138	22.82
601.467	23.08
601.797	23.26
602.126	23.57
602.456	23.85
602.785	24
603.114	24.32
603.443	24.68
603.773	25
604.102	25.25
604.431	25.58
604.76	25.89
605.089	26.16
605.418	26.26
605.747	26.67
606.076	26.96
606.405	27.08
606.733	27.29
607.062	27.52
607.391	27.44
607.72	27.62
608.048	27.9
608.377	28.03
608.705	28.45
609.034	28.69
609.362	29.11
609.69	29.41
610.019	29.77
610.347	30.08
610.675	30.38
611.004	30.64
611.332	30.81
611.66	31.1
611.988	31.08
612.316	31.14
612.644	31.26
612.972	31.37
613.3	31.54
613.627	31.93
613.955	31.86
614.283	32.22
614.611	32.61
614.938	33.04
615.266	33.28
615.593	33.98
615.921	34.23
616.248	34.37
616.576	34.91
616.903	35.17
617.23	35.67
617.558	36.21
617.885	36.45
618.212	36.75
618.539	37.02
618.866	37.11
619.193	37.51
619.52	37.69
619.847	37.88
620.174	38.16
620.501	38.62
620.828	39
621.155	39.31
621.481	39.42
621.808	39.81
622.135	40.17
622.461	40.28
622.788	40.63
623.114	40.72
623.441	40.94
623.767	40.95
624.093	41.5
624.42	42.07
624.746	42.35
625.072	42.83
625.398	43.18
625.725	43.39
626.051	43.91
626.377	44.41
626.703	44.81
627.029	45.55
627.354	45.79
627.68	46.33
628.006	46.98
628.332	47.32
628.658	47.46
628.983	47.86
629.309	48.42
629.634	49.5
629.96	49.56
630.285	50.06
630.611	50.23
630.936	50.66
631.262	51.33
631.587	51.78
631.912	52.3
632.237	52.49
632.562	53.05
632.887	53.42
633.213	53.25
633.538	53.15
633.863	52.79
634.187	52.92
634.512	53.55
634.837	53.79
635.162	53.51
635.487	53.29
635.811	53.53
636.136	53.64
636.461	54.58
636.785	54.84
637.11	54.81
637.434	55.22
637.758	54.77
638.083	55.32
638.407	55.34
638.731	56.11
639.056	56.5
639.38	56.16
639.704	56.3
640.028	56.74
640.352	56.57
640.676	56.22
641	56.31
641.324	57.13
641.648	57.64
641.972	58.35
642.295	58.49
642.619	58.72
642.943	58.54
643.266	59.06
643.59	60.11
643.913	59.7
644.237	59.8
644.56	59.47
644.884	59.89
645.207	60.04
645.53	60.41
645.854	60.62
646.177	60.22
646.5	60.66
646.823	60.4
647.146	60.17
647.469	59.86
647.792	59.5
648.115	59.85
648.438	60.69
648.761	62.76
649.084	63.63
649.406	63.44
649.729	62.71
650.052	62.11
650.374	62
650.697	61.64
651.019	61.83
651.342	61.77
651.664	61.64
651.987	61.9
652.309	61.91
652.631	62.16
652.953	62.19
653.276	62.33
653.598	62.24
653.92	62.31
654.242	62.59
654.564	62.6
654.886	62.81
655.208	62.78
655.53	63
655.851	63.19
656.173	63.32
656.495	63.21
656.816	62.46
657.138	61.9
657.46	62
657.781	63.2
658.103	65.24
658.424	66.63
658.746	67.22
659.067	67.15
659.388	67.28
659.709	67.52
660.031	67.62
660.352	67.99
660.673	67.89
660.994	68.99
661.315	68.98
661.636	69.58
661.957	69.96
662.278	68.92
662.599	68.38
662.919	67.81
663.24	67.9
663.561	68.87
663.881	68.83
664.202	68.02
664.523	67.45
664.843	67.58
665.164	67.53
665.484	66.9
665.804	66.8
666.125	66.24
666.445	66.19
666.765	66.47
667.085	67.29
667.405	67.68
667.726	68.56
668.046	68.83
668.366	68.89
668.686	68.48
669.005	66.96
669.325	67.01
669.645	66.35
669.965	65.93
670.285	66.31
670.604	66.08
670.924	66.11
671.243	66.56
671.563	66.25
671.882	66.04
672.202	66.22
672.521	67.13
672.841	67.21
673.16	67.44
673.479	67.15
673.798	67.5
674.117	67.94
674.437	68.06
674.756	68.56
675.075	68.73
675.394	68.39
675.713	67.93
676.031	68.14
676.35	68.02
676.669	68.18
676.988	69.6
677.306	70.07
677.625	70.74
677.944	71.28
678.262	71.65
678.581	72.54
678.899	72.49
679.218	72.18
679.536	71.74
679.854	71.66
680.172	71.59
680.491	71.05
680.809	71.38
681.127	70.86
681.445	72.24
681.763	72.2
682.081	71.79
682.399	71.75
682.717	72.13
683.035	71.45
683.352	71.66
683.67	72.05
683.988	72.65
684.306	72.24
684.623	71.79
684.941	71.81
685.258	71.13
685.576	70.99
685.893	71.08
686.211	71.49
686.528	70.94
686.845	71.31
687.162	71.87
687.48	72
687.797	72.68
688.114	72.36
688.431	72.49
688.748	72.54
689.065	73.27
689.382	72.15
689.699	72.24
690.015	73.15
690.332	72.64
690.649	72.84
690.966	72.6
691.282	72.67
691.599	72.21
691.915	70.48
692.232	70.55
692.548	70.87
692.865	70.82
693.181	70.88
693.497	71.55
693.813	72.12
694.13	71.67
694.446	72.52
694.762	72.41
695.078	72.63
695.394	73.19
695.71	73
696.026	73.02
696.342	73.66
696.658	73.87
696.973	74.04
697.289	74.94
697.605	74.3
697.92	73.79
698.236	74.87
698.551	74.34
698.867	74.71
699.182	75.67
699.498	75.52
699.813	76.47
700.128	76.88
700.444	77.27
700.759	74.98
701.074	74.8
701.389	74.41
701.704	73.27
702.019	73.18
702.334	72.45
702.649	72.2
702.964	71.5
703.279	71.26
703.594	72.07
703.908	72.51
704.223	72.75
704.538	71.73
704.852	70.8
705.167	69.84
705.481	70.79
705.796	70.41
706.11	69.45
706.425	68.97
706.739	69.13
707.053	68.72
707.368	68.41
707.682	67.94
707.996	68.3
708.31	68.43
708.624	69.37
708.938	69.91
709.252	69.57
709.566	69.99
709.88	70.39
710.193	69.95
710.507	69.77
710.821	70.33
711.135	70
711.448	69.58
711.762	70.78
712.075	70.37
712.389	71.48
712.702	72.28
713.015	71.79
713.329	71.17
713.642	71.36
713.955	71.55
714.269	71.15
714.582	71.53
714.895	71.7
715.208	72.74
715.521	72.85
715.834	72.29
716.147	71.31
716.459	70.55
716.772	71.14
717.085	71.97
717.398	72.02
717.71	71.51
718.023	72.3
718.336	72.67
718.648	72.34
718.961	71.63
719.273	71.34
719.585	68.66
719.898	68.22
720.21	68.36
720.522	66.3
720.834	66.32
721.147	68.27
721.459	68.85
721.771	69.48
722.083	69.9
722.395	69.83
722.707	69.52
723.019	67.6
723.33	67.36
723.642	67.48
723.954	67.88
724.265	68.99
724.577	67.9
724.889	67
725.2	67.04
725.512	68.14
725.823	68.89
726.135	68.88
726.446	69.25
726.757	69.44
727.068	70.1
727.38	71.19
727.691	71.46
728.002	70.98
728.313	71.77
728.624	71.58
728.935	70.15
729.246	69.38
729.557	70.61
729.867	70.89
730.178	70.38
730.489	70.09
730.8	70.72
731.11	70.85
731.421	71.27
731.731	71.04
732.042	70.76
732.352	70.37
732.663	70.65
732.973	70.07
733.283	69.05
733.594	68.77
733.904	68.01
734.214	67.39
734.524	67.64
734.834	67.98
735.144	68.05
735.454	69.06
735.764	69.91
736.074	69.62
736.384	70.02
736.694	70.33
737.003	70.13
737.313	68.63
737.623	69
737.932	68.38
738.242	68.66
738.551	69.38
738.861	70.02
739.17	70.28
739.479	71.23
739.789	70.8
740.098	71.28
740.407	71.64
740.716	72.55
741.025	72.53
741.334	73.78
741.643	75.73
741.952	75.45
742.261	76.27
742.57	75.68
742.879	74.4
743.188	71.62
743.497	69.15
743.805	70.65
744.114	73.87
744.422	72.79
744.731	73.55
745.04	71.84
745.348	70.84
745.656	72.65
745.965	71.63
746.273	71.7
746.581	72.33
746.889	70.54
747.198	68.09
747.506	68.9
747.814	69.86
748.122	68.53
748.43	67.92
748.738	68
749.046	67.95
749.353	65.04
749.661	65.87
749.969	67.19
750.277	65.9
750.584	68.69
750.892	68.81
751.199	69.58
751.507	68.97
751.814	65.98
752.122	67.45
752.429	69.5
752.736	72.85
753.044	72.72
753.351	73.07
753.658	74.85
753.965	74.48
754.272	72.2
754.579	72.62
754.886	73.97
755.193	74.65
755.5	74.69
755.807	73.92
756.114	74.43
756.42	74.86
756.727	72.73
757.034	74.49
757.34	75.93
757.647	76.61
757.953	76.09
758.26	72.55
758.566	73
758.872	73.71
759.179	73.84
759.485	73.55
759.791	73.54
760.097	71.53
760.403	68.82
760.709	69.77
761.015	68.45
761.321	66.28
761.627	64.57
761.933	66.96
762.239	68.85
762.545	68.49
762.851	67.53
763.156	66.42
763.462	68.33
763.767	67.88
764.073	67.87
764.378	69.33
764.684	70.14
764.989	64.81
765.295	62.12
765.6	59.98
765.905	63.36
766.21	64.46
766.515	65.44
766.821	65.12
767.126	64.99
767.431	65.09
767.736	63.81
768.041	62.12
768.345	63.82
768.65	67.95
768.955	67.62
769.26	69.01
769.564	68.52
769.869	66.45
770.174	66.96
770.478	67.66
770.783	71.64
771.087	70.22
771.391	71.31
771.696	71.34
772	73.12
772.304	78.46
772.608	85.71
772.913	86.82
773.217	88.62
773.521	86.92
773.825	84.84
774.129	83.36
774.433	85.37
774.736	84.87
775.04	89.13
775.344	92.06
775.648	95.86
775.951	93.29
776.255	86.46
776.559	89.27
776.862	94.89
777.166	95.81
777.469	96.47
777.772	98.69
778.076	97.71
778.379	91.42
778.682	88.07
778.985	85.83
779.289	87.48
779.592	85.08
779.895	81.94
780.198	85.88
780.501	81.89
780.804	77.89
781.106	78.7
781.409	78.16
781.712	78.47
782.015	74.31
782.317	80.44
782.62	73.29
782.923	74.89
783.225	75.71
783.527	72.97
783.83	69.55
784.132	67.05
784.435	57.99
784.737	51.26
785.039	55.89
785.341	53.92
785.643	51.79
785.945	50.93
786.248	52.05
786.55	54.2
786.851	48.77
787.153	46.96
787.455	42.58
787.757	32.62
788.059	34.02
788.36	39.95
788.662	39.88
788.964	45.47
789.265	43.95
789.567	42.96
789.868	36.71
790.17	35.7
790.471	36.02
790.772	36.41
791.074	37.45
791.375	43.28
791.676	44.95
791.977	57.56
792.278	59.93
792.579	46.32
792.88	44.08
793.181	45.28
793.482	52.44
793.783	44.18
794.083	38.78
794.384	45.84
794.685	48.09
794.986	48.45
795.286	53.1
795.587	56.76
795.887	63.19
796.188	58.57
796.488	52.63
796.788	57.64
797.089	59.42
797.389	58.51
797.689	55.38
797.989	49.5
798.289	50.25
798.589	51.65
798.889	49.57
799.189	54.64
799.489	47.1
799.789	44.42
800.089	61.21
800.389	72.23
800.688	47.47
800.988	27.31
801.288	44.84
801.587	35.01
801.887	20.12
802.186	27.44
802.486	33.32
802.785	-50.04
803.085	-116.81
803.384	-1410.88
803.683	615.11
803.982	2132.8
804.281	1155.66
804.58	1263.58
804.879	1814.68
805.178	1064.14
805.477	-636.28
805.776	-313.28
806.075	-231.83
806.374	-133.08
806.673	-140.91
806.971	-126.02
807.27	-85.26
807.569	-49.4
807.867	-35.74
808.166	-35.44
808.464	-35.63
808.763	-21.67
809.061	-19.34
809.359	-27.52
809.658	-28.18
809.956	-26.91
810.254	-21.47
810.552	-16.07
810.85	-7.64
811.148	8.32
811.446	9.49
811.744	7.93
812.042	6.54
812.34	10.02
812.638	28.11
812.935	34.16
813.233	31.98
813.531	41.6
813.828	41.69
814.126	60.37
814.423	64.42
814.721	62
815.018	67.71
815.316	42.77
815.613	44.35
815.91	68.62
816.207	53.44
816.504	120.89
816.802	124.45
817.099	110.07
817.396	73.76
817.693	67.53
817.99	95.76
818.286	108.38
818.583	104.08
818.88	155.9
819.177	142.07
819.473	108.43
819.77	118.42
820.067	76.14
820.363	67.75
820.66	64.39
820.956	68.21
821.252	82.19
821.549	88.08
821.845	89.6
822.141	103.55
822.437	98.97
822.734	101.34
823.03	120.42
823.326	131.86
823.622	148.71
823.918	105.32
824.213	115.77
824.509	104.95
824.805	140.39
825.101	132.81
825.397	118.52
825.692	109.75
825.988	101.93
826.283	77.16
826.579	75.12
826.874	108.77
827.17	117.35
827.465	166.73
827.76	282.38
828.056	352.96
828.351	553.98
828.646	-392.13
828.941	325.06
829.236	140.74
829.531	100.55
829.826	121.95
830.121	-88.29
830.416	25.51
830.711	111.47
831.006	178.97
831.3	99.48
831.595	200
831.89	118.43
832.184	173.89
832.479	181.03
832.773	178.08
833.068	212.8
833.362	-1216.39
833.656	464.35
833.951	-136.84
834.245	159.26
834.539	60.87
834.833	114.35
835.127	46.58
835.421	39.84
835.715	-17.9
836.009	-106.6
836.303	-182.46
836.597	-140.34
836.891	-22.46
837.185	-21.02
837.478	-5.79
837.772	-11.33
838.066	2.61
838.359	14.07
838.653	5.42
838.946	17.17
839.24	12.37
839.533	-3.06
839.826	-5.26
840.119	-6.82
840.413	-7.75
840.706	-17.22
840.999	-3.35
841.292	-12.11
841.585	-40.13
841.878	-21.83
842.171	-28.06
842.464	-52.99
842.757	-12.69
843.049	-8
843.342	17.2
843.635	12.13
843.927	9.36
844.22	9.95
844.513	11.23
844.805	22.39
845.098	30.6
845.39	36.78
845.682	29.02
845.975	19.45
846.267	13.39
846.559	17.08
846.851	25.13
847.143	38.54
847.435	36.98
847.727	38.12
848.019	22.79
848.311	22.98
848.603	47.48
848.895	79.3
849.186	80.97
849.478	102.9
849.77	120.09
850.061	79.63
850.353	74.99
850.645	72.92
850.936	76.08
851.227	74.87
851.519	71.09
851.81	74.89
852.101	72.2
852.393	62.13
852.684	60.4
852.975	119.19
853.266	373.84
853.557	286.76
853.848	372.83
854.139	350.53
854.43	393.51
854.72	-1077.06
855.011	2014.93
855.302	459.67
855.593	-357.47
855.883	16733.33
856.174	141.39
856.464	392.83
856.755	470.77
857.045	109.95
857.336	459.46
857.626	1121.21
857.916	411.83
858.206	-109.16
858.497	-61.05
858.787	-23.22
859.077	-11.08
859.367	-39.7
859.657	-50.74
859.947	-20.16
860.237	-27.53
860.527	-926.4
860.816	230.13
861.106	533.74
861.396	178.67
861.685	36466.67
861.975	166.13
862.265	-105.83
862.554	-33.81
862.844	167.52
863.133	-489.91
863.422	-15.47
863.712	119.24
864.001	4.14
864.29	56
864.579	-176.47
864.868	228.07
865.157	37.79
865.446	90.53
865.735	9.66
866.024	54.76
866.313	43.67
866.602	-190
866.891	-154.06
867.179	-2.45
867.468	-688.89
