Data from T1_Reflection__123__23-57-27-081.txt Node

Date: Wed Jun 02 23:57:27 CEST 2021
User: mabdelazizm
Spectrometer: FLMS18565
Trigger mode: 0
Integration Time (sec): 2.000000E0
Scans to average: 1
Electric dark correction enabled: true
Nonlinearity correction enabled: false
Boxcar width: 12
XAxis mode: Wavelengths
Number of Pixels in Spectrum: 2048
>>>>>Begin Spectral Data<<<<<
179.071	23.31
179.452	-5.53
179.833	-4.82
180.214	-32.73
180.595	-517.76
180.977	-203.25
181.358	-76.26
181.739	-364.71
182.12	-159.44
182.501	-136.19
182.882	-59.5
183.262	-112.38
183.643	-21.19
184.024	-2.18
184.405	12.22
184.786	15.64
185.166	2.86
185.547	11.72
185.927	-2.68
186.308	-3.77
186.689	-1.17
187.069	-2.25
187.449	-4.71
187.83	-8.51
188.21	-6.62
188.59	-7
188.971	-3.5
189.351	-3.09
189.731	1.36
190.111	4.36
190.491	6.92
190.871	4.75
191.251	6.28
191.631	5.71
192.011	5.74
192.391	5.72
192.771	7.58
193.151	6.95
193.531	6.68
193.91	6.74
194.29	5.07
194.67	5.42
195.049	4.47
195.429	4.85
195.808	5.29
196.188	5.95
196.567	5.9
196.946	7.43
197.326	7.81
197.705	6.95
198.084	5.75
198.464	5.91
198.843	5.05
199.222	2.98
199.601	1.83
199.98	0.48
200.359	0.41
200.738	2.25
201.117	2.61
201.496	2.05
201.875	1.2
202.254	1.03
202.632	0.86
203.011	0.37
203.39	-0.46
203.768	1.37
204.147	3.27
204.525	3.02
204.904	4.73
205.282	3.93
205.661	2.54
206.039	4.05
206.418	4.02
206.796	5.46
207.174	4.87
207.552	6.3
207.931	5.65
208.309	5.81
208.687	6.31
209.065	7.55
209.443	7.23
209.821	7.89
210.199	6.81
210.577	6.37
210.954	6.75
211.332	7.96
211.71	7.36
212.088	7.12
212.465	7.46
212.843	7.06
213.221	5.93
213.598	5.82
213.976	5.66
214.353	5.44
214.731	5.55
215.108	6.2
215.485	4.99
215.863	4.6
216.24	3.34
216.617	4.53
216.994	4.57
217.371	4.63
217.749	4.53
218.126	4.34
218.503	3.04
218.88	2.72
219.256	1.93
219.633	1.38
220.01	2.12
220.387	2.39
220.764	1.47
221.14	1.54
221.517	1.53
221.894	1.38
222.27	2.22
222.647	2.56
223.023	2.22
223.4	2.49
223.776	2.54
224.153	2.3
224.529	2.01
224.905	2.86
225.282	2.91
225.658	3.16
226.034	2.68
226.41	2.38
226.786	2.3
227.162	2.4
227.538	2.61
227.914	2.64
228.29	2.54
228.666	2.43
229.042	2.42
229.418	2.12
229.793	2.13
230.169	2.38
230.545	2.43
230.92	2.46
231.296	2.45
231.672	2.26
232.047	2.14
232.422	2.05
232.798	1.79
233.173	1.67
233.549	1.81
233.924	1.68
234.299	1.25
234.674	1.27
235.05	1.16
235.425	1.24
235.8	1.2
236.175	1.13
236.55	1.04
236.925	0.88
237.3	0.86
237.675	0.91
238.049	1.03
238.424	1.15
238.799	1.18
239.174	1.15
239.548	1.01
239.923	0.88
240.297	0.83
240.672	0.77
241.046	0.66
241.421	0.74
241.795	0.7
242.17	0.73
242.544	0.67
242.918	0.6
243.293	0.65
243.667	0.7
244.041	0.63
244.415	0.63
244.789	0.58
245.163	0.59
245.537	0.61
245.911	0.67
246.285	0.73
246.659	0.73
247.033	0.71
247.406	0.72
247.78	0.62
248.154	0.56
248.528	0.51
248.901	0.52
249.275	0.56
249.648	0.57
250.022	0.59
250.395	0.63
250.769	0.56
251.142	0.68
251.515	0.64
251.888	0.61
252.262	0.59
252.635	0.56
253.008	0.57
253.381	0.54
253.754	0.52
254.127	0.53
254.5	0.51
254.873	0.39
255.246	0.35
255.619	0.34
255.992	0.34
256.364	0.4
256.737	0.4
257.11	0.42
257.483	0.43
257.855	0.39
258.228	0.39
258.6	0.39
258.973	0.4
259.345	0.41
259.718	0.4
260.09	0.42
260.462	0.36
260.834	0.36
261.207	0.38
261.579	0.43
261.951	0.43
262.323	0.42
262.695	0.44
263.067	0.44
263.439	0.44
263.811	0.48
264.183	0.56
264.555	0.54
264.927	0.52
265.298	0.54
265.67	0.48
266.042	0.44
266.413	0.44
266.785	0.45
267.156	0.46
267.528	0.46
267.899	0.43
268.271	0.4
268.642	0.35
269.013	0.35
269.385	0.34
269.756	0.31
270.127	0.3
270.498	0.31
270.87	0.29
271.241	0.27
271.612	0.25
271.983	0.29
272.354	0.33
272.724	0.34
273.095	0.37
273.466	0.38
273.837	0.43
274.208	0.41
274.578	0.41
274.949	0.43
275.32	0.45
275.69	0.46
276.061	0.41
276.431	0.44
276.802	0.41
277.172	0.47
277.542	0.48
277.913	0.52
278.283	0.51
278.653	0.49
279.023	0.49
279.394	0.49
279.764	0.48
280.134	0.45
280.504	0.52
280.874	0.52
281.244	0.4
281.614	0.32
281.983	0.35
282.353	0.31
282.723	0.3
283.093	0.27
283.462	0.3
283.832	0.26
284.202	0.27
284.571	0.27
284.941	0.22
285.31	0.25
285.68	0.23
286.049	0.19
286.418	0.12
286.788	0.16
287.157	0.12
287.526	0.11
287.895	0.14
288.264	0.18
288.633	0.15
289.002	0.16
289.371	0.19
289.74	0.1
290.109	0.11
290.478	0.21
290.847	0.25
291.216	0.22
291.585	0.18
291.953	0.17
292.322	0.19
292.691	0.15
293.059	0.18
293.428	0.13
293.796	0.15
294.165	0.18
294.533	0.18
294.901	0.24
295.27	0.28
295.638	0.24
296.006	0.15
296.374	0.2
296.743	0.17
297.111	0.14
297.479	0.09
297.847	0.12
298.215	0.08
298.583	0.06
298.95	0.12
299.318	0.14
299.686	0.1
300.054	0.12
300.422	0.09
300.789	0.16
301.157	0.15
301.525	0.17
301.892	0.2
302.26	0.23
302.627	0.25
302.994	0.19
303.362	0.16
303.729	0.15
304.097	0.08
304.464	0.06
304.831	0.08
305.198	0.08
305.565	0.06
305.932	0.09
306.299	0.11
306.666	0.13
307.033	0.09
307.4	0.14
307.767	0.15
308.134	0.12
308.501	0.08
308.867	0.04
309.234	0.03
309.601	0.02
309.967	0.02
310.334	0.05
310.701	-0.03
311.067	-0.08
311.433	-0.13
311.8	-0.09
312.166	-0.07
312.533	0.01
312.899	0
313.265	0.02
313.631	0.05
313.997	0.1
314.363	0.11
314.729	0.12
315.096	0.07
315.461	0.05
315.827	0
316.193	0.07
316.559	0.05
316.925	0.04
317.291	0.04
317.656	0.02
318.022	0.07
318.388	0.05
318.753	0.04
319.119	-0.01
319.484	-0.04
319.85	0.03
320.215	0.03
320.581	0.03
320.946	0.01
321.311	-0
321.676	-0.11
322.042	-0.11
322.407	-0.05
322.772	-0.02
323.137	0
323.502	0.01
323.867	0.01
324.232	0.09
324.597	0.1
324.962	0.21
325.327	0.21
325.691	0.19
326.056	0.23
326.421	0.25
326.785	0.24
327.15	0.24
327.514	0.25
327.879	0.25
328.243	0.27
328.608	0.28
328.972	0.26
329.337	0.31
329.701	0.31
330.065	0.37
330.429	0.36
330.794	0.42
331.158	0.42
331.522	0.34
331.886	0.36
332.25	0.22
332.614	0.21
332.978	0.19
333.342	0.21
333.705	0.18
334.069	0.08
334.433	0.08
334.797	0.08
335.16	0.11
335.524	0.1
335.887	0.16
336.251	0.2
336.614	0.19
336.978	0.18
337.341	0.17
337.705	0.19
338.068	0.24
338.431	0.23
338.794	0.23
339.158	0.14
339.521	0.12
339.884	0.06
340.247	0.02
340.61	0.05
340.973	0.04
341.336	0.12
341.699	0.11
342.062	0.09
342.424	0.05
342.787	-0.01
343.15	0.01
343.512	-0.02
343.875	-0.03
344.238	-0.07
344.6	-0.01
344.963	0
345.325	-0.08
345.688	-0.08
346.05	-0.04
346.412	-0.09
346.775	-0.05
347.137	-0.11
347.499	-0.1
347.861	-0.04
348.223	-0.01
348.585	0.03
348.947	0.12
349.309	0.14
349.671	0.09
350.033	0.03
350.395	-0.02
350.757	-0.03
351.118	0.01
351.48	0.05
351.842	0.16
352.203	0.16
352.565	0.21
352.927	0.26
353.288	0.29
353.65	0.19
354.011	0.15
354.372	0.22
354.734	0.28
355.095	0.31
355.456	0.32
355.817	0.23
356.179	0.21
356.54	0.22
356.901	0.24
357.262	0.2
357.623	0.12
357.984	0.12
358.345	0.15
358.705	0.21
359.066	0.21
359.427	0.32
359.788	0.4
360.148	0.41
360.509	0.31
360.87	0.28
361.23	0.3
361.591	0.35
361.951	0.35
362.312	0.32
362.672	0.33
363.032	0.35
363.393	0.34
363.753	0.27
364.113	0.17
364.473	0.24
364.833	0.33
365.193	0.37
365.553	0.36
365.913	0.27
366.273	0.27
366.633	0.41
366.993	0.31
367.353	0.25
367.713	0.27
368.072	0.33
368.432	0.24
368.792	0.27
369.151	0.19
369.511	0.2
369.87	0.23
370.23	0.23
370.589	0.12
370.949	0.07
371.308	0.02
371.667	0.04
372.027	0.07
372.386	0.04
372.745	0.06
373.104	0.09
373.463	0.05
373.822	0.01
374.181	0.04
374.54	0.02
374.899	-0.04
375.258	-0.1
375.617	-0.15
375.975	-0.05
376.334	0
376.693	-0.02
377.052	-0.04
377.41	-0.05
377.769	-0.09
378.127	-0.12
378.486	-0.07
378.844	-0.1
379.202	-0.1
379.561	-0.07
379.919	-0.1
380.277	-0.08
380.636	0
380.994	-0.03
381.352	-0.03
381.71	-0.04
382.068	0.06
382.426	0.02
382.784	0.02
383.142	0.04
383.5	0.02
383.857	0.1
384.215	0.17
384.573	0.11
384.931	0.05
385.288	0.06
385.646	0.03
386.003	-0
386.361	0.08
386.718	0.1
387.076	0.2
387.433	0.23
387.791	0.24
388.148	0.33
388.505	0.33
388.862	0.33
389.22	0.43
389.577	0.4
389.934	0.45
390.291	0.49
390.648	0.57
391.005	0.59
391.362	0.65
391.718	0.68
392.075	0.61
392.432	0.65
392.789	0.7
393.145	0.83
393.502	0.9
393.859	0.95
394.215	1.05
394.572	1.13
394.928	1.22
395.285	1.21
395.641	1.28
395.997	1.31
396.354	1.41
396.71	1.56
397.066	1.59
397.422	1.71
397.778	1.94
398.134	1.97
398.491	2.12
398.846	2.24
399.202	2.38
399.558	2.62
399.914	2.69
400.27	2.84
400.626	3
400.981	3.21
401.337	3.43
401.693	3.61
402.048	3.76
402.404	3.98
402.759	4.24
403.115	4.4
403.47	4.71
403.826	4.97
404.181	5.31
404.536	5.49
404.892	5.76
405.247	6.01
405.602	6.26
405.957	6.53
406.312	6.91
406.667	7.15
407.022	7.55
407.377	7.87
407.732	8.25
408.087	8.54
408.442	8.75
408.796	9.08
409.151	9.47
409.506	9.92
409.86	10.26
410.215	10.77
410.57	11.21
410.924	11.64
411.279	12.04
411.633	12.49
411.987	12.97
412.342	13.29
412.696	13.74
413.05	14.23
413.404	14.73
413.758	15.43
414.113	15.93
414.467	16.43
414.821	16.87
415.175	17.27
415.529	17.78
415.882	18.18
416.236	18.64
416.59	19.07
416.944	19.55
417.298	20.12
417.651	20.58
418.005	21.06
418.358	21.52
418.712	22.02
419.065	22.45
419.419	22.78
419.772	23.19
420.126	23.69
420.479	24.16
420.832	24.48
421.185	24.88
421.539	25.23
421.892	25.59
422.245	26.02
422.598	26.31
422.951	26.78
423.304	27.23
423.657	27.62
424.01	28.07
424.363	28.53
424.715	29.09
425.068	29.47
425.421	29.92
425.773	30.33
426.126	30.74
426.479	31.2
426.831	31.5
427.184	31.84
427.536	32.16
427.889	32.4
428.241	32.86
428.593	33.23
428.945	33.59
429.298	33.92
429.65	34.33
430.002	34.71
430.354	35.15
430.706	35.53
431.058	35.85
431.41	36.12
431.762	36.28
432.114	36.47
432.466	36.79
432.817	37.08
433.169	37.36
433.521	37.6
433.872	37.86
434.224	38.03
434.576	38.24
434.927	38.36
435.279	38.48
435.63	38.7
435.981	39.02
436.333	39.19
436.684	39.51
437.035	39.64
437.387	39.8
437.738	39.88
438.089	39.88
438.44	40.02
438.791	40.2
439.142	40.27
439.493	40.42
439.844	40.54
440.195	40.65
440.545	40.74
440.896	40.76
441.247	40.97
441.598	41.04
441.948	41.17
442.299	41.23
442.649	41.34
443	41.51
443.35	41.64
443.701	41.74
444.051	41.91
444.401	41.9
444.752	41.88
445.102	42.01
445.452	41.86
445.802	41.93
446.152	42.01
446.502	42.14
446.852	42.45
447.202	42.51
447.552	42.63
447.902	42.59
448.252	42.56
448.602	44.04
448.952	44.25
449.301	44.37
449.651	44.47
450.001	44.48
450.35	44.5
450.7	44.48
451.049	44.5
451.399	44.56
451.748	44.59
452.097	44.58
452.447	44.62
452.796	44.66
453.145	44.92
453.494	44.85
453.843	44.87
454.193	44.98
454.542	45.05
454.891	45.01
455.239	44.92
455.588	44.94
455.937	45.02
456.286	44.9
456.635	45.11
456.984	45.17
457.332	43.46
457.681	43.28
458.03	43.28
458.378	43.33
458.727	43.25
459.075	43.32
459.423	43.26
459.772	43.33
460.12	43.34
460.468	43.3
460.817	43.44
461.165	43.41
461.513	43.42
461.861	43.53
462.209	43.57
462.557	43.32
462.905	43.35
463.253	43.35
463.601	43.35
463.949	43.37
464.297	43.24
464.644	43.07
464.992	43.06
465.34	43.02
465.687	42.94
466.035	42.89
466.383	42.84
466.73	42.84
467.078	42.84
467.425	42.7
467.772	42.72
468.12	42.61
468.467	42.49
468.814	42.39
469.161	42.34
469.508	42.09
469.856	41.89
470.203	41.76
470.55	41.44
470.897	41.29
471.243	41.4
471.59	41.23
471.937	41.06
472.284	41.04
472.631	40.9
472.977	40.78
473.324	40.8
473.671	40.77
474.017	40.75
474.364	40.57
474.71	40.46
475.057	40.41
475.403	40.2
475.749	40.08
476.096	39.97
476.442	39.75
476.788	39.73
477.134	39.63
477.48	39.52
477.826	39.45
478.172	39.46
478.518	39.41
478.864	39.33
479.21	39.42
479.556	39.44
479.902	39.33
480.248	39.18
480.593	39.12
480.939	38.93
481.285	38.97
481.63	38.88
481.976	38.75
482.321	38.58
482.667	38.38
483.012	38.35
483.357	38.27
483.703	38.15
484.048	38.24
484.393	38.11
484.738	38.12
485.084	38.09
485.429	37.98
485.774	37.93
486.119	37.91
486.464	37.82
486.808	37.71
487.153	37.71
487.498	37.57
487.843	37.36
488.188	37.11
488.532	36.94
488.877	36.87
489.222	36.74
489.566	36.7
489.911	36.5
490.255	36.39
490.6	36.25
490.944	36.19
491.288	36.08
491.633	35.93
491.977	35.79
492.321	35.73
492.665	35.5
493.009	35.4
493.353	35.28
493.697	35.16
494.041	34.98
494.385	34.88
494.729	34.69
495.073	34.51
495.417	34.43
495.76	34.27
496.104	34.12
496.448	34.05
496.791	34
497.135	33.94
497.479	33.86
497.822	33.84
498.165	33.64
498.509	33.5
498.852	33.3
499.196	33.21
499.539	33.03
499.882	32.93
500.225	32.86
500.568	32.85
500.911	32.65
501.254	32.56
501.597	32.53
501.94	32.45
502.283	32.39
502.626	32.44
502.969	32.36
503.312	32.27
503.654	32.26
503.997	32.08
504.34	31.96
504.682	31.95
505.025	31.83
505.367	31.76
505.71	31.69
506.052	31.6
506.395	31.44
506.737	31.45
507.079	31.44
507.421	31.45
507.764	31.32
508.106	31.28
508.448	31.21
508.79	31.2
509.132	31.09
509.474	31.03
509.816	30.82
510.158	30.65
510.499	30.52
510.841	30.41
511.183	30.19
511.525	30.12
511.866	30.02
512.208	29.84
512.549	29.73
512.891	29.74
513.232	29.6
513.574	29.55
513.915	29.4
514.256	29.25
514.598	29.23
514.939	29.16
515.28	29.03
515.621	28.89
515.962	28.75
516.303	28.74
516.644	28.67
516.985	28.5
517.326	28.37
517.667	28.28
518.008	28.16
518.349	28.11
518.69	28.01
519.03	27.91
519.371	27.76
519.712	27.77
520.052	27.62
520.393	27.62
520.733	27.56
521.074	27.61
521.414	27.55
521.754	27.45
522.095	27.36
522.435	27.41
522.775	27.42
523.115	27.2
523.455	27.09
523.795	27.01
524.135	26.94
524.475	26.91
524.815	26.82
525.155	26.77
525.495	26.78
525.835	26.62
526.175	26.45
526.514	26.4
526.854	26.48
527.194	26.38
527.533	26.38
527.873	26.26
528.212	26.14
528.552	26.07
528.891	26.05
529.23	26.02
529.57	25.89
529.909	25.73
530.248	25.7
530.587	25.62
530.927	25.55
531.266	25.35
531.605	25.4
531.944	25.26
532.283	25.19
532.621	25.01
532.96	24.98
533.299	24.97
533.638	24.93
533.977	24.79
534.315	24.77
534.654	24.84
534.992	24.8
535.331	24.59
535.67	24.54
536.008	24.34
536.346	24.26
536.685	24.07
537.023	23.93
537.361	23.76
537.7	23.63
538.038	23.61
538.376	23.45
538.714	23.45
539.052	23.32
539.39	23.22
539.728	23.23
540.066	23.15
540.404	23.12
540.741	23.02
541.079	23.04
541.417	22.95
541.755	22.67
542.092	22.58
542.43	22.57
542.767	22.43
543.105	22.31
543.442	22.45
543.78	22.49
544.117	22.55
544.454	22.64
544.792	22.73
545.129	22.89
545.466	22.87
545.803	22.84
546.14	22.73
546.477	22.64
546.814	22.66
547.151	22.46
547.488	22.52
547.825	22.4
548.162	22.36
548.499	22.22
548.835	22.15
549.172	22.16
549.509	22.25
549.845	22.23
550.182	22.39
550.518	22.37
550.855	22.37
551.191	22.49
551.528	22.55
551.864	22.31
552.2	22.29
552.537	22.23
552.873	22.18
553.209	22.03
553.545	21.99
553.881	21.92
554.217	21.91
554.553	22.02
554.889	22.08
555.225	22.12
555.561	22.2
555.896	22.1
556.232	22.04
556.568	22
556.903	22.13
557.239	22.25
557.575	22.21
557.91	22.09
558.245	22.14
558.581	22.09
558.916	22.1
559.252	22.19
559.587	22.09
559.922	22.14
560.257	22.21
560.592	22.29
560.928	22.38
561.263	22.62
561.598	22.72
561.933	22.59
562.267	22.88
562.602	23.03
562.937	23.06
563.272	23.13
563.607	23.2
563.941	23.32
564.276	23.41
564.611	23.53
564.945	23.6
565.28	23.53
565.614	23.53
565.949	23.7
566.283	23.76
566.617	23.81
566.951	23.75
567.286	23.81
567.62	23.9
567.954	24.06
568.288	24.02
568.622	24.11
568.956	23.97
569.29	23.89
569.624	23.78
569.958	23.81
570.292	23.95
570.626	23.97
570.959	23.9
571.293	23.88
571.627	23.81
571.96	23.88
572.294	23.87
572.627	23.89
572.961	23.93
573.294	24.02
573.627	24.08
573.961	24.1
574.294	24.1
574.627	24.18
574.961	24.16
575.294	24.17
575.627	24.11
575.96	24.06
576.293	23.96
576.626	23.98
576.959	23.96
577.292	24.07
577.624	24.14
577.957	24.2
578.29	24.28
578.623	24.25
578.955	24.14
579.288	24.16
579.62	24.21
579.953	24.27
580.285	24.26
580.618	24.33
580.95	24.34
581.282	24.34
581.615	24.26
581.947	24.3
582.279	24.37
582.611	24.37
582.943	24.41
583.275	24.48
583.607	24.63
583.939	24.68
584.271	24.69
584.603	24.92
584.935	25.05
585.267	25.15
585.598	25.27
585.93	25.34
586.262	25.34
586.593	25.37
586.925	25.47
587.256	25.62
587.588	25.73
587.919	25.88
588.25	25.94
588.582	26.04
588.913	26.14
589.244	26.31
589.575	26.54
589.907	26.78
590.238	26.94
590.569	27.06
590.9	27.24
591.231	27.38
591.562	27.39
591.892	27.49
592.223	27.76
592.554	28.03
592.885	27.94
593.215	27.98
593.546	28
593.877	27.95
594.207	28.01
594.538	28.08
594.868	28.25
595.198	28.41
595.529	28.57
595.859	28.76
596.189	28.84
596.52	28.99
596.85	29.04
597.18	29.06
597.51	29.09
597.84	29.06
598.17	29.1
598.5	29.1
598.83	29.3
599.16	29.44
599.489	29.53
599.819	29.7
600.149	29.88
600.479	29.84
600.808	29.9
601.138	30.19
601.467	30.26
601.797	30.43
602.126	30.67
602.456	30.84
602.785	31.21
603.114	31.32
603.443	31.53
603.773	31.67
604.102	31.75
604.431	31.99
604.76	32.16
605.089	32.45
605.418	32.64
605.747	32.75
606.076	32.91
606.405	33.12
606.733	33.51
607.062	33.68
607.391	33.8
607.72	33.85
608.048	34.04
608.377	34.2
608.705	34.6
609.034	34.75
609.362	35.01
609.69	35.32
610.019	35.64
610.347	35.79
610.675	35.99
611.004	35.98
611.332	36.3
611.66	36.53
611.988	36.76
612.316	36.75
612.644	36.84
612.972	36.9
613.3	37.03
613.627	37.33
613.955	37.68
614.283	38.21
614.611	38.18
614.938	38.28
615.266	38.45
615.593	38.96
615.921	39.29
616.248	39.46
616.576	39.81
616.903	40.11
617.23	40.56
617.558	40.88
617.885	41.22
618.212	41.33
618.539	41.84
618.866	41.95
619.193	42.08
619.52	42.13
619.847	42.05
620.174	42.24
620.501	42.89
620.828	43.09
621.155	43.15
621.481	43.2
621.808	43.43
622.135	43.47
622.461	43.35
622.788	43.88
623.114	43.97
623.441	44.02
623.767	43.94
624.093	44.22
624.42	44.55
624.746	45.07
625.072	45.11
625.398	45.27
625.725	45.42
626.051	45.55
626.377	46.08
626.703	46.1
627.029	46.62
627.354	47.16
627.68	47.44
628.006	48.23
628.332	48.29
628.658	48.31
628.983	48.62
629.309	49.25
629.634	49.64
629.96	49.76
630.285	50.51
630.611	50.6
630.936	50.84
631.262	51.15
631.587	51.62
631.912	51.55
632.237	52.06
632.562	52.69
632.887	52.69
633.213	52.81
633.538	53.23
633.863	52.76
634.187	53.34
634.512	53.45
634.837	53.44
635.162	53.33
635.487	53.05
635.811	53.32
636.136	53.28
636.461	53.75
636.785	53.57
637.11	53.83
637.434	54.37
637.758	54.38
638.083	54.49
638.407	54.87
638.731	55.66
639.056	56.24
639.38	56.7
639.704	56.39
640.028	57.09
640.352	56.83
640.676	57.22
641	56.75
641.324	56.93
641.648	57.08
641.972	57.85
642.295	57.24
642.619	57.41
642.943	57.41
643.266	57.59
643.59	58.17
643.913	57.85
644.237	57.73
644.56	57.29
644.884	57.87
645.207	58.06
645.53	57.3
645.854	57.54
646.177	57.71
646.5	57.97
646.823	57.7
647.146	57.52
647.469	56.62
647.792	56.65
648.115	56.53
648.438	56.87
648.761	57.17
649.084	57.51
649.406	57.7
649.729	56.26
650.052	55.51
650.374	55.27
650.697	54.86
651.019	54.82
651.342	54.68
651.664	54.69
651.987	54.72
652.309	54.81
652.631	55.08
652.953	55.21
653.276	55.15
653.598	55.28
653.92	55.16
654.242	55.35
654.564	55.04
654.886	54.85
655.208	54.69
655.53	54.89
655.851	54.96
656.173	54.98
656.495	55.01
656.816	54.51
657.138	54.05
657.46	52.96
657.781	53.96
658.103	55.54
658.424	56.75
658.746	57.84
659.067	58.59
659.388	59.37
659.709	59
660.031	59.3
660.352	59.12
660.673	58.72
660.994	58.67
661.315	58.59
661.636	58.82
661.957	58.91
662.278	57.88
662.599	58.38
662.919	59
663.24	58.68
663.561	59.02
663.881	58.62
664.202	58.28
664.523	57.48
664.843	57.13
665.164	57.41
665.484	56.69
665.804	56.42
666.125	55.86
666.445	56.22
666.765	56.48
667.085	56.4
667.405	57.13
667.726	57.77
668.046	58.37
668.366	58.37
668.686	58.16
669.005	57.33
669.325	57.5
669.645	57.37
669.965	57.52
670.285	57.41
670.604	56.85
670.924	56.44
671.243	56.73
671.563	56.6
671.882	56.86
672.202	57.26
672.521	57.9
672.841	58.3
673.16	57.86
673.479	58.46
673.798	58.64
674.117	59.36
674.437	59.07
674.756	59.18
675.075	59.19
675.394	58.2
675.713	57.8
676.031	57.35
676.35	57.5
676.669	57.86
676.988	58.46
677.306	58.19
677.625	59.05
677.944	59.56
678.262	59.61
678.581	60.26
678.899	60.24
679.218	60.57
679.536	60.73
679.854	60.56
680.172	60.46
680.491	59.97
680.809	60.13
681.127	59.99
681.445	60.94
681.763	61.69
682.081	60.92
682.399	60.57
682.717	60.52
683.035	60.5
683.352	60.29
683.67	60.69
683.988	61.26
684.306	61.39
684.623	60.95
684.941	61.12
685.258	60.49
685.576	60.12
685.893	60.62
686.211	61.43
686.528	60.83
686.845	62.08
687.162	61.76
687.48	62.29
687.797	62.96
688.114	62.94
688.431	63.48
688.748	63.38
689.065	63.65
689.382	62.27
689.699	61.68
690.015	62.23
690.332	63.2
690.649	62.8
690.966	62.73
691.282	63.63
691.599	63.7
691.915	62.86
692.232	62.79
692.548	63.07
692.865	63.01
693.181	63.53
693.497	63.69
693.813	62.91
694.13	62.61
694.446	63.31
694.762	62.51
695.078	63.13
695.394	62.37
695.71	61.98
696.026	61.83
696.342	61.73
696.658	62.54
696.973	62.57
697.289	63.81
697.605	63.65
697.92	63.26
698.236	62.35
698.551	62.74
698.867	63.27
699.182	63.14
699.498	62.61
699.813	62.84
700.128	62.82
700.444	62.99
700.759	61.05
701.074	61.44
701.389	61.41
701.704	60.24
702.019	60.36
702.334	59.63
702.649	59.68
702.964	58.97
703.279	58.72
703.594	58.95
703.908	58.95
704.223	59.06
704.538	59.07
704.852	59.33
705.167	57.47
705.481	56.96
705.796	56.91
706.11	56.98
706.425	56.97
706.739	55.49
707.053	56.8
707.368	57.36
707.682	56.93
707.996	57
708.31	57.15
708.624	57.16
708.938	57.74
709.252	56.71
709.566	57.99
709.88	57.55
710.193	57.34
710.507	56.88
710.821	57.11
711.135	56.5
711.448	55.64
711.762	56.77
712.075	56.84
712.389	56
712.702	55.58
713.015	56.59
713.329	56.97
713.642	57
713.955	56.58
714.269	55.7
714.582	57.31
714.895	56.74
715.208	57.23
715.521	57.22
715.834	57.68
716.147	57.48
716.459	57.88
716.772	57.4
717.085	59.27
717.398	58.27
717.71	58.55
718.023	60.03
718.336	60.69
718.648	60.76
718.961	62.01
719.273	62.56
719.585	60.58
719.898	59.5
720.21	59.77
720.522	59.47
720.834	59.53
721.147	61.22
721.459	61.72
721.771	63.02
722.083	63.27
722.395	63.59
722.707	64.12
723.019	61.92
723.33	62.78
723.642	62.09
723.954	61.87
724.265	63.04
724.577	61.54
724.889	60.35
725.2	60.41
725.512	60.87
725.823	60.15
726.135	59.13
726.446	59.74
726.757	59.26
727.068	61.7
727.38	62.14
727.691	63.33
728.002	62.75
728.313	63.46
728.624	63.08
728.935	62.43
729.246	62.37
729.557	62.29
729.867	62.52
730.178	61.08
730.489	59.97
730.8	60.68
731.11	60.06
731.421	59.59
731.731	59.34
732.042	59.14
732.352	59.25
732.663	58.89
732.973	58.78
733.283	57.81
733.594	57.91
733.904	58.5
734.214	58.66
734.524	59
734.834	57.85
735.144	58.4
735.454	58.7
735.764	58.84
736.074	58.18
736.384	58.88
736.694	58.07
737.003	57.62
737.313	57.94
737.623	58.18
737.932	58.67
738.242	58.82
738.551	59.38
738.861	59.61
739.17	61.07
739.479	61.73
739.789	61.63
740.098	63.72
740.407	64.49
740.716	65.86
741.025	65.65
741.334	65.78
741.643	66.07
741.952	65.27
742.261	66.37
742.57	67.14
742.879	65.6
743.188	64.18
743.497	64.17
743.805	65.53
744.114	66.78
744.422	68.47
744.731	69.97
745.04	68.54
745.348	65.82
745.656	66.46
745.965	67
746.273	67.32
746.581	66.93
746.889	64.04
747.198	61.03
747.506	61.54
747.814	60.58
748.122	59.57
748.43	59.12
748.738	59.62
749.046	59.34
749.353	56.73
749.661	57.68
749.969	57.06
750.277	54.1
750.584	55.89
750.892	56.47
751.199	57.62
751.507	56.54
751.814	54.12
752.122	53.71
752.429	54.66
752.736	55.39
753.044	56.84
753.351	58.31
753.658	58.35
753.965	59.54
754.272	59.12
754.579	60.64
754.886	63.54
755.193	64.75
755.5	64.42
755.807	63.73
756.114	62.91
756.42	62.76
756.727	63.39
757.034	65.24
757.34	66.24
757.647	66.1
757.953	67.51
758.26	65.94
758.566	66.41
758.872	66.56
759.179	68.38
759.485	68.57
759.791	68.45
760.097	65.57
760.403	65.68
760.709	65.95
761.015	63.23
761.321	62.23
761.627	58.76
761.933	59.78
762.239	60.52
762.545	59.44
762.851	57.4
763.156	57.46
763.462	59.89
763.767	59.63
764.073	58.16
764.378	55.97
764.684	56.29
764.989	53.12
765.295	52.45
765.6	48.95
765.905	51.03
766.21	48.98
766.515	50.58
766.821	49.08
767.126	49.63
767.431	53.61
767.736	53.51
768.041	52.05
768.345	54.79
768.65	58.99
768.955	60.01
769.26	60.02
769.564	59.85
769.869	58.67
770.174	61
770.478	63.46
770.783	63.01
771.087	59.64
771.391	61.87
771.696	63.92
772	72.17
772.304	75.69
772.608	79.13
772.913	82.66
773.217	89.25
773.521	87.46
773.825	87.39
774.129	83.15
774.433	85.16
774.736	88.49
775.04	85.74
775.344	91.23
775.648	90.99
775.951	89.99
776.255	84.66
776.559	81.82
776.862	83.38
777.166	84.62
777.469	82.37
777.772	83.5
778.076	79.77
778.379	77.55
778.682	81.4
778.985	79.74
779.289	83.2
779.592	78.55
779.895	77.82
780.198	76.2
780.501	69.92
780.804	63.85
781.106	62.63
781.409	66.4
781.712	66.86
782.015	63.67
782.317	59.41
782.62	58.68
782.923	60.39
783.225	62.19
783.527	60.68
783.83	57.83
784.132	58.83
784.435	58.1
784.737	59.56
785.039	65.49
785.341	60.21
785.643	59.98
785.945	65.23
786.248	64.74
786.55	64.07
786.851	61.67
787.153	61.39
787.455	60.86
787.757	63.98
788.059	73.87
788.36	80.76
788.662	90.12
788.964	82.55
789.265	78.54
789.567	82.33
789.868	86.49
790.17	90.21
790.471	83.55
790.772	82.62
791.074	90.56
791.375	99.51
791.676	103.89
791.977	106.95
792.278	99.43
792.579	94.94
792.88	98.84
793.181	109.39
793.482	110.83
793.783	110.07
794.083	111.46
794.384	130.83
794.685	133.84
794.986	135.36
795.286	113.82
795.587	104.42
795.887	105.56
796.188	100.89
796.488	107.98
796.788	108.43
797.089	109.4
797.389	104.46
797.689	104.24
797.989	107.28
798.289	111.8
798.589	101.62
798.889	116.43
799.189	122.27
799.489	143.82
799.789	187.94
800.089	200.65
800.389	261.68
800.688	240.1
800.988	212.24
801.288	263.75
801.587	294.76
801.887	274.65
802.186	202.2
802.486	173.98
802.785	285.51
803.085	441.1
803.384	1636.73
803.683	-432.75
803.982	-1208
804.281	-1095.93
804.58	-1538.73
804.879	-2867.89
805.178	-1440.51
805.477	898.81
805.776	414.34
806.075	294.5
806.374	183.65
806.673	155.53
806.971	150.8
807.27	119.53
807.569	103.76
807.867	97.37
808.166	97.8
808.464	87.53
808.763	76.81
809.061	60.15
809.359	55.39
809.658	75.51
809.956	80.54
810.254	92.26
810.552	76.31
810.85	78.46
811.148	75.45
811.446	63.21
811.744	48.53
812.042	41.32
812.34	29.15
812.638	38.77
812.935	44.91
813.233	47.62
813.531	54.6
813.828	47.7
814.126	53.74
814.423	64.42
814.721	70.66
815.018	62.71
815.316	23.44
815.613	30.73
815.91	61.92
816.207	72.83
816.504	129.37
816.802	125.35
817.099	138.73
817.396	81.73
817.693	70.25
817.99	74.58
818.286	75.77
818.583	96.13
818.88	150.91
819.177	152.74
819.473	131.18
819.77	175.38
820.067	95.51
820.363	80.78
820.66	80.77
820.956	83.16
821.252	96.15
821.549	98.65
821.845	95.6
822.141	111.59
822.437	93.3
822.734	98.28
823.03	109.14
823.326	91.39
823.622	83.54
823.918	69.16
824.213	86.64
824.509	59.46
824.805	82.99
825.101	75.73
825.397	80.01
825.692	61.67
825.988	40.97
826.283	26.91
826.579	34.54
826.874	8.93
827.17	29.19
827.465	23.57
827.76	67.03
828.056	73.75
828.351	-12.39
828.646	212.6
828.941	-138.39
829.236	-136.59
829.531	-338.21
829.826	-349.89
830.121	675.68
830.416	516.45
830.711	259.89
831.006	343.98
831.3	507.16
831.595	572.89
831.89	455.16
832.184	878.79
832.479	1705.14
832.773	1195.07
833.068	2939.2
833.362	4737.7
833.656	-2193.04
833.951	1154.39
834.245	-358.98
834.539	-2707.83
834.833	-543.47
835.127	-282.19
835.421	-236.36
835.715	-281.45
836.009	-195.91
836.303	-356.72
836.597	-356.16
836.891	-94.71
837.185	-59.94
837.478	-11.21
837.772	5.99
838.066	17.64
838.359	32.2
838.653	33.03
838.946	30.77
839.24	30.57
839.533	33.8
839.826	53.39
840.119	53.58
840.413	68.48
840.706	55.32
840.999	66.99
841.292	66.75
841.585	49.19
841.878	46.98
842.171	47.96
842.464	33.85
842.757	57.14
843.049	60.09
843.342	64.13
843.635	60.19
843.927	64.55
844.22	68.33
844.513	67.09
844.805	69.35
845.098	69.26
845.39	70.19
845.682	73.94
845.975	51.99
846.267	67.11
846.559	74.06
846.851	81.94
847.143	83.35
847.435	89.88
847.727	69.26
848.019	70.19
848.311	78.64
848.603	82.71
848.895	117.95
849.186	108.6
849.478	129.26
849.77	128.21
850.061	102.68
850.353	77.04
850.645	87.11
850.936	85.91
851.227	94.54
851.519	89.38
851.81	85.38
852.101	76.26
852.393	67.12
852.684	62.2
852.975	37.43
853.266	118.4
853.557	-4.15
853.848	8.84
854.139	-13.66
854.43	-116.22
854.72	434.86
855.011	-564.18
855.302	-71.12
855.593	554.75
855.883	-22200
856.174	-50.06
856.464	153.09
856.755	257.44
857.045	124.42
857.336	187.64
857.626	490.91
857.916	163.94
858.206	-50.94
858.497	-8.07
858.787	9.65
859.077	14.09
859.367	-15.73
859.657	-4.87
859.947	14.45
860.237	23.61
860.527	-798.4
860.816	290.4
861.106	1044.17
861.396	316.15
861.685	55133.33
861.975	156.16
862.265	-258.74
862.554	-240.11
862.844	228.15
863.133	-1121.1
863.422	-405.16
863.712	-183.6
864.001	260.26
864.29	-352
864.579	-1933.33
864.868	1224.56
865.157	-463.59
865.446	338.95
865.735	130.27
866.024	146.97
866.313	134.6
866.602	480
866.891	271.71
867.179	288.16
867.468	2638.1
