Data from T1_Reflection__23__20-27-00-439.txt Node

Date: Wed Jun 02 20:27:00 CEST 2021
User: mabdelazizm
Spectrometer: FLMS18565
Trigger mode: 0
Integration Time (sec): 2.000000E0
Scans to average: 1
Electric dark correction enabled: true
Nonlinearity correction enabled: false
Boxcar width: 12
XAxis mode: Wavelengths
Number of Pixels in Spectrum: 2048
>>>>>Begin Spectral Data<<<<<
179.071	-38.42
179.452	-36.22
179.833	-38.78
180.214	-78.18
180.595	-80.62
180.977	-75.87
181.358	-65.87
181.739	-87.5
182.12	-124.18
182.501	-217.03
182.882	-207.79
183.262	-130
183.643	317.48
184.024	94.75
184.405	40.56
184.786	18.33
185.166	16.4
185.547	15.32
185.927	17.17
186.308	22.07
186.689	19.13
187.069	21.2
187.449	22.34
187.83	19.86
188.21	19.58
188.59	17.06
188.971	16.86
189.351	15.09
189.731	11.08
190.111	11.57
190.491	13.35
190.871	13.79
191.251	15.36
191.631	13.62
192.011	11.53
192.391	11.79
192.771	13.84
193.151	13.48
193.531	12.82
193.91	12.27
194.29	12.81
194.67	12.81
195.049	12.17
195.429	9.69
195.808	9.5
196.188	9.65
196.567	7.39
196.946	6.46
197.326	6.75
197.705	6.94
198.084	6.15
198.464	6.58
198.843	6.42
199.222	7.92
199.601	7.97
199.98	7.54
200.359	7.49
200.738	7.49
201.117	8.45
201.496	8.66
201.875	8.24
202.254	7.8
202.632	7.02
203.011	6.62
203.39	6.66
203.768	6.79
204.147	7.03
204.525	6.38
204.904	8.66
205.282	10.38
205.661	9.57
206.039	9.56
206.418	9.95
206.796	9.6
207.174	9.33
207.552	10.02
207.931	9.12
208.309	9.57
208.687	9.01
209.065	8.41
209.443	8.61
209.821	8.97
210.199	7.92
210.577	6.78
210.954	6.71
211.332	6.23
211.71	6.7
212.088	6.71
212.465	6.51
212.843	6.81
213.221	7.01
213.598	7.09
213.976	7.52
214.353	6.79
214.731	5.27
215.108	5.82
215.485	5.53
215.863	4.97
216.24	4.64
216.617	4.08
216.994	4.14
217.371	3.9
217.749	3.55
218.126	3.53
218.503	3.65
218.88	3.77
219.256	3.1
219.633	3.15
220.01	3.5
220.387	3.68
220.764	3.57
221.14	3.08
221.517	3.23
221.894	2.98
222.27	2.68
222.647	2.04
223.023	1.77
223.4	1.69
223.776	2.02
224.153	2.33
224.529	2.08
224.905	2.57
225.282	2.78
225.658	2.76
226.034	2.85
226.41	2.88
226.786	3.08
227.162	3.01
227.538	3.1
227.914	3.09
228.29	3.13
228.666	3
229.042	2.82
229.418	2.72
229.793	2.68
230.169	2.66
230.545	2.64
230.92	2.62
231.296	2.42
231.672	2.43
232.047	2.47
232.422	2.59
232.798	2.5
233.173	2.3
233.549	2.25
233.924	2.3
234.299	2.18
234.674	2.11
235.05	2.14
235.425	2
235.8	2.1
236.175	2.08
236.55	2.07
236.925	2.1
237.3	2.09
237.675	1.89
238.049	1.95
238.424	1.91
238.799	1.95
239.174	1.89
239.548	1.88
239.923	1.85
240.297	1.78
240.672	1.85
241.046	1.85
241.421	1.85
241.795	1.75
242.17	1.77
242.544	1.74
242.918	1.74
243.293	1.76
243.667	1.73
244.041	1.66
244.415	1.65
244.789	1.72
245.163	1.64
245.537	1.63
245.911	1.61
246.285	1.52
246.659	1.54
247.033	1.68
247.406	1.65
247.78	1.7
248.154	1.69
248.528	1.73
248.901	1.8
249.275	1.81
249.648	1.73
250.022	1.74
250.395	1.75
250.769	1.81
251.142	1.81
251.515	1.83
251.888	1.87
252.262	1.84
252.635	1.78
253.008	1.84
253.381	1.87
253.754	1.89
254.127	1.87
254.5	1.8
254.873	1.72
255.246	1.71
255.619	1.69
255.992	1.6
256.364	1.51
256.737	1.52
257.11	1.5
257.483	1.45
257.855	1.41
258.228	1.37
258.6	1.35
258.973	1.44
259.345	1.38
259.718	1.35
260.09	1.29
260.462	1.27
260.834	1.21
261.207	1.2
261.579	1.22
261.951	1.27
262.323	1.26
262.695	1.26
263.067	1.22
263.439	1.2
263.811	1.24
264.183	1.31
264.555	1.36
264.927	1.35
265.298	1.41
265.67	1.41
266.042	1.36
266.413	1.33
266.785	1.38
267.156	1.36
267.528	1.32
267.899	1.32
268.271	1.24
268.642	1.35
269.013	1.31
269.385	1.34
269.756	1.37
270.127	1.37
270.498	1.36
270.87	1.31
271.241	1.27
271.612	1.17
271.983	1.14
272.354	1.13
272.724	1.15
273.095	1.14
273.466	1.13
273.837	1.1
274.208	1.11
274.578	1.04
274.949	1.06
275.32	1.03
275.69	1.07
276.061	1.03
276.431	1
276.802	1.04
277.172	1.07
277.542	1.09
277.913	1.04
278.283	1.09
278.653	1.09
279.023	1.03
279.394	1.05
279.764	1.07
280.134	1.06
280.504	1.05
280.874	1.14
281.244	1.12
281.614	1.14
281.983	1.13
282.353	1.11
282.723	1.08
283.093	1.08
283.462	1.04
283.832	1.09
284.202	1.05
284.571	1.09
284.941	1.1
285.31	1.04
285.68	1.07
286.049	1.07
286.418	1.02
286.788	1.05
287.157	1.04
287.526	1.03
287.895	0.98
288.264	1
288.633	1.01
289.002	0.94
289.371	0.95
289.74	0.95
290.109	0.87
290.478	0.9
290.847	0.85
291.216	0.83
291.585	0.82
291.953	0.84
292.322	0.86
292.691	0.87
293.059	0.84
293.428	0.84
293.796	0.89
294.165	0.83
294.533	0.85
294.901	0.89
295.27	0.86
295.638	0.87
296.006	0.83
296.374	0.81
296.743	0.77
297.111	0.8
297.479	0.77
297.847	0.76
298.215	0.83
298.583	0.8
298.95	0.84
299.318	0.9
299.686	0.91
300.054	0.93
300.422	0.92
300.789	0.89
301.157	0.9
301.525	0.92
301.892	0.93
302.26	0.9
302.627	0.95
302.994	0.88
303.362	0.88
303.729	0.93
304.097	0.89
304.464	0.89
304.831	0.88
305.198	0.9
305.565	0.9
305.932	0.94
306.299	0.92
306.666	0.94
307.033	0.93
307.4	0.91
307.767	0.87
308.134	0.83
308.501	0.78
308.867	0.7
309.234	0.72
309.601	0.71
309.967	0.74
310.334	0.69
310.701	0.65
311.067	0.61
311.433	0.67
311.8	0.62
312.166	0.63
312.533	0.71
312.899	0.74
313.265	0.7
313.631	0.65
313.997	0.68
314.363	0.7
314.729	0.65
315.096	0.64
315.461	0.67
315.827	0.72
316.193	0.77
316.559	0.78
316.925	0.83
317.291	0.79
317.656	0.78
318.022	0.84
318.388	0.79
318.753	0.82
319.119	0.87
319.484	0.92
319.85	0.93
320.215	1
320.581	0.94
320.946	0.95
321.311	0.9
321.676	0.85
322.042	0.83
322.407	0.89
322.772	0.9
323.137	0.89
323.502	0.86
323.867	0.86
324.232	0.87
324.597	0.82
324.962	0.81
325.327	0.78
325.691	0.75
326.056	0.75
326.421	0.8
326.785	0.85
327.15	0.87
327.514	0.92
327.879	1.02
328.243	0.93
328.608	0.9
328.972	0.87
329.337	0.85
329.701	0.88
330.065	0.89
330.429	0.87
330.794	0.91
331.158	0.92
331.522	0.9
331.886	0.9
332.25	0.86
332.614	0.84
332.978	0.8
333.342	0.79
333.705	0.88
334.069	0.85
334.433	0.84
334.797	0.8
335.16	0.79
335.524	0.76
335.887	0.75
336.251	0.74
336.614	0.68
336.978	0.63
337.341	0.67
337.705	0.7
338.068	0.77
338.431	0.72
338.794	0.67
339.158	0.66
339.521	0.67
339.884	0.63
340.247	0.57
340.61	0.57
340.973	0.62
341.336	0.69
341.699	0.76
342.062	0.85
342.424	0.82
342.787	0.75
343.15	0.75
343.512	0.77
343.875	0.8
344.238	0.83
344.6	0.81
344.963	0.8
345.325	0.8
345.688	0.85
346.05	0.86
346.412	0.88
346.775	0.8
347.137	0.8
347.499	0.84
347.861	0.87
348.223	0.88
348.585	0.91
348.947	0.95
349.309	0.94
349.671	0.89
350.033	0.84
350.395	0.79
350.757	0.76
351.118	0.77
351.48	0.82
351.842	0.85
352.203	0.87
352.565	0.79
352.927	0.83
353.288	0.78
353.65	0.87
354.011	0.84
354.372	0.84
354.734	0.81
355.095	0.73
355.456	0.7
355.817	0.72
356.179	0.7
356.54	0.71
356.901	0.74
357.262	0.71
357.623	0.72
357.984	0.64
358.345	0.65
358.705	0.69
359.066	0.63
359.427	0.71
359.788	0.66
360.148	0.62
360.509	0.57
360.87	0.54
361.23	0.48
361.591	0.54
361.951	0.52
362.312	0.5
362.672	0.41
363.032	0.35
363.393	0.34
363.753	0.33
364.113	0.34
364.473	0.41
364.833	0.43
365.193	0.41
365.553	0.31
365.913	0.35
366.273	0.34
366.633	0.32
366.993	0.33
367.353	0.29
367.713	0.27
368.072	0.34
368.432	0.27
368.792	0.31
369.151	0.31
369.511	0.29
369.87	0.33
370.23	0.34
370.589	0.34
370.949	0.33
371.308	0.41
371.667	0.36
372.027	0.5
372.386	0.48
372.745	0.47
373.104	0.5
373.463	0.36
373.822	0.34
374.181	0.32
374.54	0.36
374.899	0.29
375.258	0.33
375.617	0.36
375.975	0.41
376.334	0.46
376.693	0.5
377.052	0.43
377.41	0.43
377.769	0.41
378.127	0.36
378.486	0.39
378.844	0.35
379.202	0.41
379.561	0.39
379.919	0.39
380.277	0.38
380.636	0.44
380.994	0.36
381.352	0.41
381.71	0.43
382.068	0.44
382.426	0.53
382.784	0.54
383.142	0.53
383.5	0.53
383.857	0.56
384.215	0.55
384.573	0.5
384.931	0.5
385.288	0.51
385.646	0.45
386.003	0.41
386.361	0.45
386.718	0.48
387.076	0.46
387.433	0.46
387.791	0.43
388.148	0.43
388.505	0.46
388.862	0.46
389.22	0.45
389.577	0.44
389.934	0.47
390.291	0.45
390.648	0.36
391.005	0.37
391.362	0.28
391.718	0.29
392.075	0.26
392.432	0.25
392.789	0.18
393.145	0.2
393.502	0.21
393.859	0.17
394.215	0.13
394.572	0.17
394.928	0.22
395.285	0.2
395.641	0.16
395.997	0.15
396.354	0.18
396.71	0.22
397.066	0.16
397.422	0.17
397.778	0.19
398.134	0.13
398.491	0.15
398.846	0.09
399.202	0.03
399.558	0.15
399.914	0.13
400.27	0.2
400.626	0.12
400.981	0.11
401.337	0.15
401.693	0.25
402.048	0.16
402.404	0.21
402.759	0.2
403.115	0.25
403.47	0.23
403.826	0.28
404.181	0.29
404.536	0.27
404.892	0.33
405.247	0.26
405.602	0.28
405.957	0.26
406.312	0.17
406.667	0.25
407.022	0.26
407.377	0.23
407.732	0.29
408.087	0.31
408.442	0.26
408.796	0.2
409.151	0.27
409.506	0.34
409.86	0.29
410.215	0.33
410.57	0.27
410.924	0.32
411.279	0.24
411.633	0.27
411.987	0.27
412.342	0.26
412.696	0.19
413.05	0.25
413.404	0.29
413.758	0.34
414.113	0.37
414.467	0.33
414.821	0.44
415.175	0.55
415.529	0.52
415.882	0.45
416.236	0.46
416.59	0.48
416.944	0.51
417.298	0.56
417.651	0.58
418.005	0.49
418.358	0.51
418.712	0.66
419.065	0.61
419.419	0.56
419.772	0.61
420.126	0.61
420.479	0.68
420.832	0.6
421.185	0.65
421.539	0.74
421.892	0.67
422.245	0.73
422.598	0.74
422.951	0.74
423.304	0.76
423.657	0.62
424.01	0.61
424.363	0.59
424.715	0.62
425.068	0.63
425.421	0.64
425.773	0.63
426.126	0.63
426.479	0.69
426.831	0.67
427.184	0.69
427.536	0.67
427.889	0.74
428.241	0.9
428.593	0.87
428.945	0.99
429.298	1
429.65	1.06
430.002	1.07
430.354	1
430.706	1.01
431.058	0.92
431.41	0.93
431.762	1
432.114	0.94
432.466	1.01
432.817	1
433.169	1
433.521	1.09
433.872	1.17
434.224	1.15
434.576	1.23
434.927	1.18
435.279	1.13
435.63	1.1
435.981	1.11
436.333	1.14
436.684	1.06
437.035	0.95
437.387	0.94
437.738	0.9
438.089	0.81
438.44	0.81
438.791	0.8
439.142	0.76
439.493	0.75
439.844	0.81
440.195	0.73
440.545	0.74
440.896	0.85
441.247	0.83
441.598	0.76
441.948	0.75
442.299	0.78
442.649	0.69
443	0.68
443.35	0.65
443.701	0.61
444.051	0.65
444.401	0.8
444.752	0.75
445.102	0.67
445.452	0.7
445.802	0.67
446.152	0.74
446.502	0.76
446.852	0.77
447.202	0.8
447.552	0.89
447.902	0.95
448.252	0.95
448.602	2.11
448.952	2.17
449.301	2.19
449.651	2.12
450.001	2.18
450.35	2.29
450.7	2.36
451.049	2.29
451.399	2.43
451.748	2.41
452.097	2.5
452.447	2.54
452.796	2.48
453.145	2.4
453.494	2.39
453.843	2.45
454.193	2.56
454.542	2.68
454.891	2.65
455.239	2.57
455.588	2.63
455.937	2.57
456.286	2.44
456.635	2.49
456.984	2.44
457.332	1.13
457.681	1.13
458.03	1.12
458.378	1.19
458.727	1.19
459.075	1.25
459.423	1.35
459.772	1.5
460.12	1.43
460.468	1.55
460.817	1.59
461.165	1.58
461.513	1.63
461.861	1.66
462.209	1.75
462.557	1.76
462.905	1.66
463.253	1.56
463.601	1.59
463.949	1.7
464.297	1.67
464.644	1.7
464.992	1.76
465.34	1.79
465.687	1.9
466.035	1.85
466.383	1.92
466.73	1.86
467.078	1.9
467.425	1.88
467.772	1.91
468.12	1.8
468.467	1.7
468.814	1.71
469.161	1.62
469.508	1.47
469.856	1.58
470.203	1.65
470.55	1.66
470.897	1.61
471.243	1.58
471.59	1.52
471.937	1.59
472.284	1.51
472.631	1.49
472.977	1.5
473.324	1.58
473.671	1.59
474.017	1.5
474.364	1.53
474.71	1.56
475.057	1.47
475.403	1.46
475.749	1.53
476.096	1.47
476.442	1.36
476.788	1.38
477.134	1.33
477.48	1.36
477.826	1.39
478.172	1.43
478.518	1.32
478.864	1.31
479.21	1.26
479.556	1.24
479.902	1.32
480.248	1.44
480.593	1.4
480.939	1.45
481.285	1.39
481.63	1.38
481.976	1.32
482.321	1.34
482.667	1.35
483.012	1.31
483.357	1.39
483.703	1.43
484.048	1.61
484.393	1.58
484.738	1.73
485.084	1.82
485.429	1.83
485.774	2.03
486.119	2.08
486.464	2.2
486.808	2.32
487.153	2.51
487.498	2.65
487.843	2.92
488.188	3.14
488.532	3.31
488.877	3.43
489.222	3.76
489.566	4.04
489.911	4.33
490.255	4.68
490.6	5.06
490.944	5.3
491.288	5.7
491.633	6.07
491.977	6.4
492.321	6.79
492.665	7
493.009	7.43
493.353	7.83
493.697	8.31
494.041	8.87
494.385	9.39
494.729	9.93
495.073	10.44
495.417	11
495.76	11.52
496.104	12.1
496.448	12.67
496.791	13.33
497.135	14
497.479	14.71
497.822	15.32
498.165	15.92
498.509	16.75
498.852	17.43
499.196	18.21
499.539	18.98
499.882	19.68
500.225	20.37
500.568	21.06
500.911	21.74
501.254	22.53
501.597	23.3
501.94	24.04
502.283	24.71
502.626	25.37
502.969	25.98
503.312	26.63
503.654	27.43
503.997	28.16
504.34	28.87
504.682	29.56
505.025	30.15
505.367	30.87
505.71	31.57
506.052	32.29
506.395	33.08
506.737	33.81
507.079	34.39
507.421	34.99
507.764	35.61
508.106	36.23
508.448	36.9
508.79	37.61
509.132	38.31
509.474	38.95
509.816	39.57
510.158	40.22
510.499	40.78
510.841	41.39
511.183	42
511.525	42.48
511.866	43.07
512.208	43.48
512.549	44.02
512.891	44.58
513.232	45.03
513.574	45.68
513.915	46.05
514.256	46.49
514.598	46.9
514.939	47.23
515.28	47.48
515.621	47.93
515.962	48.43
516.303	48.87
516.644	49.28
516.985	49.69
517.326	49.97
517.667	50.3
518.008	50.66
518.349	50.95
518.69	51.16
519.03	51.34
519.371	51.57
519.712	51.78
520.052	52.07
520.393	52.34
520.733	52.76
521.074	53.07
521.414	53.38
521.754	53.82
522.095	53.97
522.435	54.28
522.775	54.4
523.115	54.71
523.455	54.9
523.795	55.23
524.135	55.45
524.475	55.78
524.815	55.92
525.155	56.08
525.495	56.3
525.835	56.54
526.175	56.64
526.514	56.76
526.854	56.9
527.194	57.03
527.533	57.25
527.873	57.37
528.212	57.44
528.552	57.59
528.891	57.77
529.23	57.83
529.57	57.98
529.909	58.02
530.248	58.14
530.587	58.17
530.927	58.21
531.266	58.49
531.605	58.74
531.944	58.95
532.283	59.12
532.621	59.24
532.96	59.38
533.299	59.43
533.638	59.6
533.977	59.58
534.315	59.73
534.654	59.91
534.992	59.92
535.331	59.91
535.67	59.95
536.008	60.05
536.346	60.28
536.685	60.48
537.023	60.67
537.361	60.78
537.7	60.91
538.038	60.87
538.376	61.11
538.714	61.2
539.052	61.43
539.39	61.61
539.728	61.69
540.066	61.71
540.404	61.77
540.741	61.8
541.079	61.73
541.417	61.8
541.755	62.23
542.092	62.27
542.43	62.41
542.767	62.42
543.105	62.35
543.442	62.5
543.78	62.84
544.117	63.04
544.454	63.19
544.792	63.27
545.129	63.24
545.466	63.17
545.803	63.25
546.14	63.36
546.477	63.56
546.814	63.65
547.151	63.54
547.488	63.53
547.825	63.55
548.162	63.72
548.499	63.71
548.835	63.85
549.172	63.97
549.509	64.06
549.845	64.03
550.182	63.71
550.518	63.74
550.855	63.75
551.191	63.86
551.528	64.1
551.864	64.1
552.2	64.05
552.537	64.06
552.873	64.09
553.209	64
553.545	64.1
553.881	64.33
554.217	64.39
554.553	64.41
554.889	64.34
555.225	64.44
555.561	64.69
555.896	64.61
556.232	64.78
556.568	64.7
556.903	64.63
557.239	64.52
557.575	64.61
557.91	64.75
558.245	64.82
558.581	64.95
558.916	65.14
559.252	65.26
559.587	65.34
559.922	65.32
560.257	65.48
560.592	65.41
560.928	65.38
561.263	65.59
561.598	65.64
561.933	65.86
562.267	65.87
562.602	65.84
562.937	65.85
563.272	66.05
563.607	65.82
563.941	65.74
564.276	66.08
564.611	66.14
564.945	66.31
565.28	66.53
565.614	66.74
565.949	66.71
566.283	66.72
566.617	66.8
566.951	66.77
567.286	66.97
567.62	66.89
567.954	66.96
568.288	66.93
568.622	66.85
568.956	66.92
569.29	66.97
569.624	66.87
569.958	67.03
570.292	67.08
570.626	67.06
570.959	67.09
571.293	67.13
571.627	67.01
571.96	67.17
572.294	67.22
572.627	67.18
572.961	67.14
573.294	67.04
573.627	67.05
573.961	67.01
574.294	67.06
574.627	67.11
574.961	67.1
575.294	67.23
575.627	67.17
575.96	67.2
576.293	67
576.626	67.09
576.959	67.14
577.292	67.13
577.624	67.14
577.957	67.23
578.29	67.2
578.623	67.23
578.955	67.33
579.288	67.31
579.62	67.26
579.953	67.3
580.285	67.25
580.618	67.29
580.95	67.32
581.282	67.26
581.615	67.36
581.947	67.38
582.279	67.32
582.611	67.34
582.943	67.32
583.275	67.34
583.607	67.27
583.939	67.1
584.271	67.1
584.603	67.33
584.935	67.33
585.267	67.52
585.598	67.61
585.93	67.82
586.262	67.71
586.593	67.63
586.925	67.64
587.256	67.66
587.588	67.69
587.919	67.62
588.25	67.74
588.582	67.77
588.913	67.84
589.244	67.81
589.575	67.94
589.907	67.88
590.238	67.81
590.569	68.06
590.9	68.14
591.231	68.25
591.562	68.09
591.892	68.16
592.223	68.39
592.554	68.39
592.885	68.44
593.215	68.22
593.546	67.91
593.877	67.87
594.207	67.65
594.538	67.91
594.868	67.93
595.198	67.89
595.529	67.78
595.859	67.77
596.189	67.96
596.52	67.98
596.85	68.1
597.18	68.19
597.51	68.25
597.84	68.24
598.17	68.23
598.5	68.18
598.83	68.14
599.16	67.95
599.489	68
599.819	68.21
600.149	68.19
600.479	68.09
600.808	68.06
601.138	67.97
601.467	67.96
601.797	68.2
602.126	68.31
602.456	68.48
602.785	68.25
603.114	68.36
603.443	68.24
603.773	68.4
604.102	68.54
604.431	68.58
604.76	68.56
605.089	68.43
605.418	68.26
605.747	68.32
606.076	68.2
606.405	68.09
606.733	68.2
607.062	68.31
607.391	68.29
607.72	67.96
608.048	67.83
608.377	67.75
608.705	67.79
609.034	67.96
609.362	67.89
609.69	68.17
610.019	68.23
610.347	68.16
610.675	67.85
611.004	67.8
611.332	67.81
611.66	67.71
611.988	67.42
612.316	67.32
612.644	67.11
612.972	66.93
613.3	66.99
613.627	66.84
613.955	66.79
614.283	66.8
614.611	66.87
614.938	66.74
615.266	66.4
615.593	66.71
615.921	66.97
616.248	66.77
616.576	66.84
616.903	66.86
617.23	66.65
617.558	66.8
617.885	66.76
618.212	66.37
618.539	66.14
618.866	66.38
619.193	66.5
619.52	66.29
619.847	66.72
620.174	67.04
620.501	66.94
620.828	66.72
621.155	66.74
621.481	66.63
621.808	66.63
622.135	66.24
622.461	66.43
622.788	66.35
623.114	66.37
623.441	66.51
623.767	66.16
624.093	66.2
624.42	66.39
624.746	66.52
625.072	66.67
625.398	66.69
625.725	66.63
626.051	66.59
626.377	67.16
626.703	67.3
627.029	67.18
627.354	66.92
627.68	66.89
628.006	66.64
628.332	66.2
628.658	66.43
628.983	66.72
629.309	66.88
629.634	66.73
629.96	66.63
630.285	67
630.611	66.79
630.936	67.06
631.262	66.8
631.587	66.81
631.912	67.3
632.237	67.02
632.562	67.41
632.887	67
633.213	66.41
633.538	66.4
633.863	66.25
634.187	66.04
634.512	65.45
634.837	65.86
635.162	66.07
635.487	66.03
635.811	66.52
636.136	66.03
636.461	66.14
636.785	65.96
637.11	66.12
637.434	65.69
637.758	65.47
638.083	65.77
638.407	65.79
638.731	66.27
639.056	66.36
639.38	66.63
639.704	66.8
640.028	66.06
640.352	66.23
640.676	65.97
641	66.38
641.324	66.38
641.648	66.42
641.972	66.69
642.295	66.62
642.619	66.84
642.943	66.42
643.266	66.23
643.59	66.34
643.913	65.79
644.237	66.08
644.56	66.27
644.884	66.14
645.207	66.43
645.53	66.61
645.854	66.89
646.177	66.67
646.5	66.39
646.823	65.85
647.146	65.9
647.469	65.7
647.792	65.66
648.115	65.86
648.438	66.12
648.761	66.94
649.084	67.03
649.406	68.01
649.729	67.77
650.052	67.63
650.374	67.73
650.697	67.87
651.019	67.92
651.342	68.02
651.664	68.06
651.987	68.07
652.309	68.13
652.631	68.16
652.953	68.12
653.276	68.01
653.598	68.02
653.92	68.07
654.242	68.09
654.564	68.06
654.886	68.27
655.208	68.2
655.53	68.47
655.851	68.24
656.173	68.37
656.495	68.36
656.816	67.8
657.138	67.61
657.46	66.33
657.781	66.35
658.103	66.61
658.424	66.27
658.746	65.17
659.067	64.92
659.388	64.79
659.709	65.08
660.031	65.16
660.352	65.43
660.673	65.47
660.994	65.7
661.315	65.87
661.636	65.56
661.957	64.98
662.278	66.02
662.599	66.31
662.919	66.21
663.24	66.31
663.561	65.65
663.881	65.45
664.202	65.77
664.523	65.29
664.843	66.16
665.164	66.16
665.484	66.25
665.804	66.44
666.125	65.71
666.445	65.71
666.765	66.64
667.085	66.36
667.405	66.11
667.726	65.75
668.046	65.13
668.366	64.55
668.686	64.08
669.005	64.26
669.325	64.63
669.645	64.99
669.965	65.63
670.285	64.51
670.604	64.11
670.924	64.03
671.243	64.68
671.563	65.01
671.882	65.41
672.202	64.77
672.521	65.01
672.841	65.12
673.16	65.78
673.479	66.36
673.798	65.94
674.117	65.99
674.437	65.94
674.756	65.47
675.075	66.32
675.394	66.38
675.713	66.95
676.031	67.33
676.35	68.02
676.669	67.98
676.988	68.02
677.306	66.65
677.625	66.89
677.944	66.7
678.262	66.68
678.581	67.21
678.899	67.52
679.218	67.28
679.536	67.27
679.854	66.7
680.172	67.13
680.491	67.32
680.809	66.51
681.127	64.9
681.445	65.15
681.763	65.04
682.081	65.33
682.399	65.44
682.717	65.67
683.035	65.29
683.352	65.25
683.67	64.7
683.988	64.93
684.306	64.88
684.623	64.55
684.941	63.98
685.258	64.91
685.576	64.84
685.893	64.35
686.211	64.97
686.528	65.18
686.845	65.29
687.162	64.8
687.48	63.97
687.797	64.6
688.114	64.23
688.431	63.31
688.748	63.82
689.065	65.33
689.382	64.63
689.699	64.91
690.015	64.59
690.332	65.69
690.649	66.07
690.966	65.33
691.282	65.38
691.599	65.2
691.915	65.81
692.232	65.88
692.548	66.16
692.865	66.62
693.181	66.25
693.497	66.21
693.813	66.64
694.13	66.85
694.446	65.9
694.762	65.63
695.078	65.79
695.394	66.74
695.71	67.13
696.026	67.07
696.342	67.82
696.658	68.11
696.973	68.04
697.289	68.39
697.605	68.97
697.92	69.78
698.236	70.02
698.551	68.73
698.867	69.67
699.182	70.47
699.498	70.6
699.813	70.97
700.128	71.22
700.444	72.21
700.759	72.35
701.074	71.94
701.389	71.51
701.704	71.35
702.019	70.85
702.334	71.82
702.649	71.07
702.964	70.42
703.279	69.67
703.594	69.33
703.908	69.53
704.223	69.29
704.538	69.13
704.852	68.99
705.167	68.39
705.481	68.42
705.796	67.96
706.11	66.37
706.425	67.12
706.739	66.85
707.053	66.46
707.368	66.8
707.682	64.44
707.996	64.84
708.31	64.41
708.624	64.45
708.938	65.32
709.252	65.39
709.566	64.98
709.88	65.92
710.193	66.28
710.507	66.78
710.821	66.93
711.135	66.6
711.448	66.29
711.762	66.64
712.075	66.99
712.389	66.45
712.702	65.76
713.015	66.45
713.329	65.94
713.642	66.47
713.955	67.53
714.269	67.93
714.582	67.64
714.895	67.51
715.208	67.28
715.521	67.58
715.834	64.32
716.147	63.58
716.459	63.36
716.772	63.03
717.085	62.66
717.398	62.95
717.71	60.83
718.023	59.91
718.336	59.19
718.648	60.32
718.961	61.26
719.273	63.04
719.585	63.38
719.898	62.45
720.21	63.35
720.522	64.08
720.834	64.41
721.147	64.28
721.459	63.04
721.771	62.59
722.083	61.61
722.395	61.24
722.707	61.26
723.019	62.06
723.33	64.1
723.642	65.85
723.954	65.97
724.265	65.5
724.577	64.61
724.889	64.55
725.2	64.72
725.512	65.22
725.823	65.98
726.135	65.35
726.446	65.14
726.757	64.6
727.068	64.22
727.38	63.61
727.691	64.38
728.002	64.36
728.313	65.15
728.624	65.14
728.935	64.51
729.246	64.9
729.557	64.11
729.867	64.99
730.178	66.08
730.489	66.28
730.8	65.82
731.11	64.21
731.421	63.82
731.731	63.74
732.042	64.22
732.352	64.54
732.663	65.69
732.973	66.62
733.283	66.47
733.594	65.62
733.904	66.34
734.214	65.47
734.524	66.27
734.834	65.74
735.144	65.44
735.454	65.69
735.764	65.53
736.074	64.25
736.384	63.78
736.694	63.52
737.003	62.66
737.313	64.03
737.623	63.07
737.932	61.67
738.242	60.36
738.551	60.43
738.861	61.49
739.17	62.41
739.479	63.44
739.789	63.67
740.098	64.02
740.407	63.11
740.716	61.67
741.025	61.99
741.334	61.37
741.643	60.47
741.952	60.13
742.261	59.09
742.57	59.93
742.879	60.44
743.188	59.21
743.497	58.79
743.805	58.71
744.114	58.4
744.422	60.35
744.731	62.06
745.04	61.9
745.348	62.77
745.656	64.28
745.965	65.77
746.273	65.3
746.581	66.54
746.889	66.12
747.198	65.77
747.506	63.17
747.814	61.48
748.122	60.96
748.43	61.38
748.738	60.69
749.046	61.51
749.353	62.54
749.661	64.92
749.969	65.42
750.277	61.22
750.584	61.43
750.892	62.27
751.199	63.85
751.507	65.15
751.814	65.39
752.122	64.45
752.429	63.81
752.736	62.12
753.044	63.33
753.351	62.63
753.658	62.41
753.965	61.95
754.272	62.44
754.579	63
754.886	61.62
755.193	61.57
755.5	62.65
755.807	62.89
756.114	62.31
756.42	62.24
756.727	61.57
757.034	60.86
757.34	61.42
757.647	61.66
757.953	63.76
758.26	63.43
758.566	63.26
758.872	62.72
759.179	62
759.485	62.39
759.791	61.54
760.097	62.14
760.403	64.46
760.709	61.54
761.015	62.02
761.321	62.07
761.627	62.85
761.933	61.79
762.239	62.24
762.545	62.21
762.851	63.13
763.156	63.23
763.462	63.22
763.767	62.54
764.073	61.61
764.378	60.74
764.684	61.18
764.989	56.61
765.295	54.98
765.6	52.8
765.905	53.17
766.21	52.77
766.515	51.16
766.821	51.05
767.126	51.91
767.431	52.73
767.736	51.02
768.041	47.57
768.345	47.86
768.65	50.26
768.955	48.03
769.26	46.89
769.564	44.91
769.869	44.36
770.174	43.27
770.478	44.04
770.783	44.26
771.087	44.06
771.391	46.19
771.696	46.08
772	49.56
772.304	52.38
772.608	56.57
772.913	58.43
773.217	59.69
773.521	55.98
773.825	56.71
774.129	54.7
774.433	57.71
774.736	55.08
775.04	56.47
775.344	59.81
775.648	56.91
775.951	63.47
776.255	56.82
776.559	57.56
776.862	57.68
777.166	67.56
777.469	66.02
777.772	72.12
778.076	73.46
778.379	70.77
778.682	70.73
778.985	66.24
779.289	66.08
779.592	65.1
779.895	63.35
780.198	66.88
780.501	62.1
780.804	65.64
781.106	68.4
781.409	65.72
781.712	68.63
782.015	68.17
782.317	64.84
782.62	63.75
782.923	66.31
783.225	71.04
783.527	65.98
783.83	65.19
784.132	67.69
784.435	67.04
784.737	62.25
785.039	62.28
785.341	60.97
785.643	55.44
785.945	54.55
786.248	54.5
786.55	54.88
786.851	57.39
787.153	56.1
787.455	51.15
787.757	47.48
788.059	49.7
788.36	45.6
788.662	49.85
788.964	51.06
789.265	49.77
789.567	50.66
789.868	50.36
790.17	49.9
790.471	43.19
790.772	42.07
791.074	41.26
791.375	36.91
791.676	34.82
791.977	37.36
792.278	35.47
792.579	37.46
792.88	34.56
793.181	33.86
793.482	33.08
793.783	30.57
794.083	35
794.384	40.55
794.685	35.28
794.986	40.15
795.286	40.36
795.587	39.69
795.887	41.02
796.188	36.61
796.488	39.89
796.788	38.59
797.089	30.17
797.389	30.05
797.689	30.25
797.989	31.56
798.289	27.02
798.589	33.77
798.889	37.92
799.189	37.24
799.489	37.17
799.789	34.35
800.089	29.08
800.389	37.75
800.688	39.92
800.988	43.36
801.288	42.62
801.587	41.16
801.887	41.82
802.186	45.14
802.486	43.99
802.785	46.01
803.085	49.54
803.384	54.84
803.683	54.62
803.982	38
804.281	36.51
804.58	47.43
804.879	49.46
805.178	49.53
805.477	48.65
805.776	59.02
806.075	46.28
806.374	49.7
806.673	52.74
806.971	54.65
807.27	60.99
807.569	59.63
807.867	47
808.166	48.32
808.464	41.33
808.763	43.62
809.061	33.95
809.359	16.56
809.658	29.04
809.956	34.97
810.254	28.37
810.552	17.06
810.85	17.36
811.148	12.73
811.446	20.8
811.744	27.26
812.042	26.59
812.34	25.46
812.638	34.7
812.935	27.38
813.233	21.07
813.531	21.9
813.828	14.09
814.126	15.72
814.423	23.23
814.721	32.92
815.018	43.61
815.316	47.37
815.613	44.18
815.91	56.97
816.207	55.96
816.504	52.41
816.802	40.05
817.099	19.2
817.396	1.96
817.693	4.03
817.99	33.98
818.286	33.62
818.583	57.18
818.88	62.01
819.177	72.96
819.473	66.08
819.77	58.56
820.067	38.93
820.363	41.91
820.66	47.32
820.956	44.98
821.252	42.71
821.549	44.91
821.845	45.63
822.141	29.1
822.437	26.33
822.734	30.31
823.03	27.11
823.326	28.5
823.622	18.88
823.918	23.71
824.213	33.41
824.509	38.39
824.805	42.49
825.101	44.37
825.397	32.23
825.692	24.83
825.988	21.47
826.283	20.87
826.579	10.18
826.874	3.95
827.17	0.21
827.465	6.38
827.76	5.14
828.056	-0.1
828.351	5.63
828.646	1.61
828.941	-3.89
829.236	-14.71
829.531	-5.2
829.826	-5.86
830.121	-3.58
830.416	3.71
830.711	6.61
831.006	16.84
831.3	12.01
831.595	13.28
831.89	11.58
832.184	19.07
832.479	-3.1
832.773	15.66
833.068	28.21
833.362	20.59
833.656	-3.6
833.951	2.39
834.245	2.87
834.539	5.92
834.833	28.53
835.127	31.5
835.421	38.87
835.715	45.51
836.009	52.18
836.303	52.49
836.597	49.56
836.891	46.98
837.185	44.16
837.478	40.65
837.772	38.32
838.066	32.01
838.359	21.1
838.653	15.36
838.946	2.89
839.24	5.26
839.533	-4.04
839.826	1.2
840.119	0.12
840.413	-2.24
840.706	1.46
840.999	12.87
841.292	6.78
841.585	3.95
841.878	9.99
842.171	-0.95
842.464	-2.79
842.757	1.11
843.049	-3.92
843.342	-17.13
843.635	-20.82
843.927	-20.05
844.22	-28.52
844.513	-29.47
844.805	-36.98
845.098	-42.57
845.39	-42.62
845.682	-23.77
845.975	-13.35
846.267	-1.33
846.559	-3.96
846.851	-0.27
847.143	4.23
847.435	-0.32
847.727	-5.83
848.019	-14.97
848.311	-21.83
848.603	-14.76
848.895	-14.14
849.186	-16.49
849.478	-38.49
849.77	-42.06
850.061	-74.67
850.353	-76.24
850.645	-55.1
850.936	-34.65
851.227	-33.37
851.519	-31.31
851.81	-18.24
852.101	-26.68
852.393	-27.79
852.684	-24.69
852.975	-21.7
853.266	-26.52
853.557	-34.67
853.848	-34.16
854.139	-34.61
854.43	-40.26
854.72	-40.21
855.011	-38.48
855.302	-21.37
855.593	-10.32
855.883	-2.29
856.174	-5.69
856.464	-2.88
856.755	3.09
857.045	12.97
857.336	18.32
857.626	18.38
857.916	13.29
858.206	4.03
858.497	2.46
858.787	7.42
859.077	-1.08
859.367	3.33
859.657	2.59
859.947	5.48
860.237	-6.43
860.527	-4.26
860.816	8.13
861.106	10.3
861.396	12.09
861.685	19.37
861.975	30.63
862.265	31.75
862.554	22.25
862.844	11.89
863.133	2.57
863.422	-4.97
863.712	-21.85
864.001	-32.28
864.29	-38.44
864.579	-44.1
864.868	-37.57
865.157	-31.56
865.446	-28.2
865.735	-30.31
866.024	-41.04
866.313	-31.53
866.602	-30.77
866.891	-21.56
867.179	-26.1
867.468	-17.92
